timestamp;VLL
0;-41
1;-124
2;-85
3;5
4;84
5;81
6;67
7;26
8;-46
9;-59
10;-95
11;-182
12;-191
13;-84
14;110
15;242
16;251
17;197
18;110
19;7
20;23
21;77
22;111
23;68
24;16
25;-12
26;-121
27;-74
28;0
29;79
30;38
31;-57
32;-120
33;-91
34;-35
35;-16
36;-2
37;-88
38;-168
39;-108
40;24
41;22
42;-68
43;-156
44;-132
45;-110
46;-137
47;-68
48;-44
49;-85
50;-2
51;159
52;240
53;195
54;11
55;-29
56;80
57;165
58;154
59;146
60;153
61;161
62;149
63;103
64;-70
65;-117
66;-77
67;-43
68;22
69;108
70;91
71;-99
72;-275
73;-341
74;-347
75;-105
76;74
77;-1
78;0
79;36
80;110
81;61
82;-143
83;-173
84;-237
85;-212
86;53
87;315
88;474
89;422
90;328
91;202
92;85
93;50
94;12
95;-57
96;-140
97;-277
98;-238
99;-82
100;-5
101;-6
102;-9
103;8
104;-132
105;-60
106;84
107;165
108;159
109;51
110;-66
111;-122
112;-29
113;41
114;95
115;122
116;55
117;-363
118;-495
119;-329
120;-144
121;-182
122;-538
123;-627
124;-358
125;5
126;215
127;437
128;558
129;532
130;483
131;429
132;349
133;224
134;120
135;-33
136;-30
137;116
138;260
139;321
140;257
141;39
142;-152
143;-199
144;-150
145;-155
146;-130
147;-98
148;-119
149;-106
150;-100
151;-80
152;-43
153;-12
154;-13
155;-21
156;-27
157;-24
158;22
159;45
160;106
161;11
162;-97
163;-8
164;87
165;77
166;46
167;24
168;-44
169;-201
170;-260
171;-260
172;-233
173;-170
174;-103
175;-145
176;-263
177;-250
178;-89
179;93
180;195
181;278
182;311
183;266
184;229
185;239
186;204
187;174
188;109
189;-79
190;-209
191;-168
192;-21
193;97
194;147
195;119
196;90
197;64
198;3
199;-49
200;-98
201;-98
202;-99
203;-66
204;-8
205;117
206;165
207;125
208;71
209;0
210;-50
211;-67
212;-92
213;-87
214;-63
215;-59
216;-73
217;-92
218;-79
219;-65
220;-44
221;-28
222;-16
223;0
224;0
225;-3
226;9
227;17
228;13
229;22
230;27
231;27
232;15
233;5
234;11
235;8
236;9
237;4
238;-1
239;-8
240;0
241;1
242;3
243;5
244;2
245;-7
246;3
247;0
248;0
249;0
250;4
251;1
252;0
253;3
254;2
255;0
256;0
257;-2
258;0
259;-5
260;-3
261;-3
262;-5
263;-10
264;0
265;-2
266;2
267;4
268;-4
269;-7
270;-6
271;-9
272;-8
273;-4
274;-4
275;-2
276;0
277;-13
278;-6
279;-8
280;-3
281;-3
282;-3
283;0
284;-2
285;0
286;-1
287;0
288;3
289;-2
290;-6
291;-9
292;-6
293;-5
294;-7
295;-4
296;-4
297;-9
298;-14
299;-8
300;-3
301;-6
302;0
303;-8
304;-8
305;-6
306;0
307;0
308;2
309;-1
310;4
311;-2
312;2
313;-4
314;4
315;-9
316;-4
317;0
318;-1
319;-4
320;-1
321;-4
322;-2
323;-1
324;4
325;0
326;3
327;-6
328;-5
329;0
330;-10
331;0
332;0
333;-6
334;-1
335;-1
336;0
337;-10
338;-10
339;-2
340;-1
341;1
342;0
343;0
344;-2
345;-1
346;-3
347;0
348;1
349;0
350;-13
351;-9
352;-5
353;0
354;-2
355;-4
356;6
357;0
358;2
359;1
360;-1
361;1
362;0
363;-1
364;2
365;-9
366;-5
367;-2
368;-7
369;-1
370;0
371;2
372;4
373;8
374;-4
375;0
376;-4
377;-5
378;-6
379;-10
380;-7
381;-4
382;-7
383;-3
384;-8
385;-5
386;-5
387;-9
388;-11
389;-11
390;-6
391;-3
392;-5
393;-7
394;-10
395;-3
396;-6
397;-3
398;-2
399;-13
400;-10
401;-6
402;-8
403;-11
404;0
405;-5
406;-5
407;0
408;-3
409;-6
410;-7
411;-11
412;-2
413;-9
414;0
415;-8
416;-8
417;-16
418;-9
419;-9
420;-12
421;-4
422;-3
423;-1
424;2
425;0
426;-2
427;-2
428;-1
429;-4
430;-7
431;-4
432;-2
433;-9
434;-5
435;0
436;0
437;0
438;-3
439;2
440;-1
441;0
442;0
443;-5
444;-1
445;-2
446;-3
447;-3
448;-10
449;-3
450;1
451;1
452;3
453;4
454;2
455;-1
456;-4
457;-1
458;-12
459;-3
460;0
461;-6
462;0
463;-2
464;6
465;2
466;5
467;4
468;7
469;4
470;6
471;3
472;9
473;2
474;0
475;1
476;4
477;7
478;0
479;-1
480;-7
481;-6
482;-5
483;-10
484;-7
485;-2
486;3
487;-2
488;0
489;1
490;-6
491;2
492;-1
493;11
494;7
495;2
496;4
497;0
498;1
499;-2
500;-2
501;5
502;4
503;0
504;7
505;-5
506;-5
507;0
508;2
509;2
510;0
511;10
512;-2
513;2
514;-3
515;-2
516;-3
517;-2
518;-5
519;-6
520;0
521;1
522;0
523;-4
524;-1
525;-1
526;0
527;6
528;5
529;6
530;10
531;18
532;1
533;4
534;1
535;0
536;0
537;2
538;-2
539;0
540;-8
541;-4
542;-3
543;-2
544;-6
545;0
546;1
547;0
548;0
549;3
550;3
551;1
552;1
553;-3
554;-2
555;-6
556;-1
557;-5
558;-2
559;0
560;-4
561;0
562;3
563;4
564;6
565;2
566;3
567;0
568;0
569;2
570;-7
571;6
572;1
573;2
574;1
575;3
576;0
577;-6
578;-8
579;-7
580;-4
581;-16
582;-2
583;3
584;8
585;0
586;5
587;-3
588;2
589;2
590;3
591;11
592;0
593;0
594;-2
595;-3
596;-6
597;-3
598;-5
599;4
600;5
601;0
602;0
603;4
604;0
605;3
606;0
607;0
608;-2
609;0
610;1
611;1
612;1
613;1
614;0
615;3
616;0
617;3
618;4
619;0
620;4
621;1
622;2
623;-2
624;0
625;-2
626;-2
627;0
628;-1
629;1
630;0
631;5
632;3
633;0
634;3
635;-1
636;1
637;7
638;-5
639;0
640;2
641;0
642;6
643;-3
644;0
645;6
646;3
647;6
648;2
649;-2
650;0
651;5
652;8
653;4
654;5
655;3
656;-2
657;-10
658;-17
659;-58
660;-55
661;-39
662;0
663;28
664;28
665;42
666;66
667;77
668;83
669;62
670;23
671;-4
672;-9
673;-35
674;-50
675;-36
676;-34
677;-13
678;20
679;31
680;79
681;76
682;71
683;-16
684;-86
685;-79
686;-99
687;-132
688;-127
689;-110
690;-92
691;-96
692;-97
693;-94
694;-56
695;-23
696;10
697;37
698;57
699;139
700;208
701;235
702;253
703;213
704;169
705;144
706;54
707;41
708;87
709;104
710;45
711;-197
712;-474
713;-474
714;-223
715;34
716;223
717;149
718;73
719;109
720;100
721;88
722;49
723;-22
724;-116
725;-138
726;-279
727;-454
728;-465
729;-286
730;-148
731;14
732;195
733;349
734;363
735;282
736;177
737;160
738;194
739;284
740;282
741;87
742;-131
743;-151
744;-74
745;-230
746;-336
747;-269
748;-173
749;-4
750;54
751;52
752;108
753;136
754;124
755;112
756;85
757;-226
758;-363
759;-390
760;-113
761;210
762;386
763;350
764;150
765;19
766;9
767;31
768;-99
769;-351
770;-252
771;41
772;261
773;303
774;219
775;145
776;107
777;64
778;0
779;-87
780;-263
781;-362
782;-346
783;-227
784;164
785;563
786;604
787;361
788;68
789;-84
790;-183
791;-223
792;-193
793;-166
794;-181
795;-203
796;-146
797;-19
798;67
799;97
800;96
801;61
802;9
803;-29
804;-63
805;-124
806;-260
807;-204
808;-55
809;-104
810;-116
811;19
812;264
813;460
814;492
815;278
816;87
817;3
818;1
819;9
820;-2
821;-90
822;-151
823;-219
824;-251
825;-189
826;-72
827;14
828;38
829;85
830;47
831;15
832;18
833;0
834;-74
835;-195
836;-169
837;-36
838;248
839;400
840;285
841;100
842;15
843;-30
844;-36
845;-45
846;-26
847;-38
848;-50
849;4
850;63
851;93
852;105
853;25
854;-49
855;-55
856;-85
857;-80
858;-118
859;-173
860;-237
861;-175
862;-92
863;-34
864;-68
865;-25
866;-34
867;11
868;38
869;43
870;33
871;48
872;68
873;113
874;142
875;136
876;143
877;137
878;109
879;60
880;47
881;15
882;-34
883;-29
884;-25
885;14
886;23
887;16
888;6
889;-6
890;-12
891;-20
892;-9
893;-7
894;-10
895;-10
896;-14
897;-9
898;-2
899;2
900;1
901;-4
902;-7
903;-12
904;-16
905;-1
906;-2
907;-8
908;0
909;1
910;2
911;1
912;-11
913;-22
914;-24
915;-19
916;-22
917;-26
918;-22
919;-14
920;-4
921;-7
922;-12
923;-5
924;-2
925;2
926;2
927;1
928;5
929;4
930;6
931;0
932;-4
933;-7
934;-8
935;-2
936;1
937;0
938;0
939;0
940;0
941;0
942;-6
943;-5
944;-8
945;-3
946;-6
947;-3
948;-1
949;0
950;4
951;4
952;-2
953;-1
954;-4
955;-4
956;-6
957;-10
958;-14
959;-12
960;-16
961;-4
962;-2
963;-3
964;-7
965;-5
966;-4
967;0
968;1
969;-4
970;-1
971;-10
972;0
973;4
974;-8
975;-1
976;-2
977;-6
978;-5
979;-6
980;-2
981;-7
982;-2
983;0
984;-2
985;-8
986;-4
987;-3
988;1
989;-4
990;-4
991;3
992;-7
993;3
994;-1
995;-5
996;-8
997;-8
998;2
999;-2
1000;-5
1001;0
1002;-2
1003;-3
1004;0
1005;-1
1006;0
1007;1
1008;6
1009;0
1010;1
1011;0
1012;1
1013;3
1014;4
1015;4
1016;-6
1017;-3
1018;-6
1019;-11
1020;-11
1021;-11
1022;-4
1023;7
1024;0
1025;6
1026;0
1027;-2
1028;-2
1029;-6
1030;-3
1031;-1
1032;-2
1033;-3
1034;0
1035;0
1036;-1
1037;0
1038;0
1039;2
1040;0
1041;1
1042;6
1043;0
1044;0
1045;4
1046;-1
1047;0
1048;5
1049;1
1050;1
1051;0
1052;-3
1053;0
1054;-6
1055;-12
1056;-2
1057;-8
1058;-2
1059;-2
1060;-3
1061;-6
1062;-5
1063;-7
1064;-1
1065;-4
1066;-6
1067;1
1068;0
1069;-3
1070;3
1071;2
1072;-1
1073;-4
1074;1
1075;-4
1076;-12
1077;-14
1078;-12
1079;-10
1080;-5
1081;-7
1082;-7
1083;-11
1084;-14
1085;-12
1086;-6
1087;-5
1088;-2
1089;0
1090;-2
1091;-2
1092;-4
1093;-1
1094;-3
1095;-1
1096;-2
1097;-5
1098;-6
1099;-3
1100;0
1101;-8
1102;-4
1103;-5
1104;-6
1105;0
1106;-5
1107;2
1108;2
1109;1
1110;-4
1111;-8
1112;-3
1113;-10
1114;-3
1115;-10
1116;-6
1117;-11
1118;-3
1119;-10
1120;0
1121;0
1122;0
1123;-5
1124;-8
1125;0
1126;-5
1127;-7
1128;-2
1129;-2
1130;-2
1131;-7
1132;-4
1133;0
1134;0
1135;-4
1136;-5
1137;2
1138;0
1139;2
1140;5
1141;6
1142;8
1143;5
1144;2
1145;2
1146;0
1147;2
1148;2
1149;0
1150;0
1151;-5
1152;-5
1153;-1
1154;-10
1155;-1
1156;-5
1157;1
1158;5
1159;10
1160;6
1161;2
1162;0
1163;6
1164;-1
1165;-1
1166;-2
1167;0
1168;2
1169;-5
1170;0
1171;-1
1172;2
1173;0
1174;-1
1175;2
1176;5
1177;4
1178;3
1179;0
1180;-1
1181;2
1182;6
1183;-2
1184;-2
1185;-1
1186;3
1187;4
1188;0
1189;-3
1190;10
1191;7
1192;9
1193;0
1194;10
1195;1
1196;2
1197;1
1198;-8
1199;-3
1200;-11
1201;-8
1202;-4
1203;-1
1204;0
1205;3
1206;5
1207;2
1208;4
1209;0
1210;-1
1211;-2
1212;-5
1213;-8
1214;-3
1215;-3
1216;-2
1217;-5
1218;-3
1219;2
1220;9
1221;9
1222;2
1223;6
1224;2
1225;0
1226;0
1227;7
1228;-3
1229;0
1230;-1
1231;-1
1232;-1
1233;-6
1234;-7
1235;-4
1236;-3
1237;0
1238;0
1239;0
1240;2
1241;-2
1242;-6
1243;-2
1244;-1
1245;-4
1246;-2
1247;-9
1248;-8
1249;-4
1250;-6
1251;0
1252;0
1253;0
1254;4
1255;0
1256;1
1257;-1
1258;0
1259;-5
1260;-2
1261;-2
1262;1
1263;0
1264;0
1265;2
1266;-4
1267;0
1268;-3
1269;1
1270;-2
1271;-4
1272;0
1273;-5
1274;-5
1275;0
1276;1
1277;-3
1278;-2
1279;-4
1280;-2
1281;1
1282;2
1283;0
1284;3
1285;2
1286;3
1287;0
1288;1
1289;-3
1290;-4
1291;2
1292;3
1293;1
1294;0
1295;0
1296;-3
1297;-6
1298;0
1299;6
1300;1
1301;1
1302;1
1303;0
1304;2
1305;0
1306;0
1307;2
1308;-2
1309;-1
1310;0
1311;-1
1312;3
1313;0
1314;2
1315;-3
1316;-2
1317;4
1318;-2
1319;0
1320;0
1321;1
1322;-2
1323;-1
1324;0
1325;4
1326;0
1327;-2
1328;0
1329;0
1330;0
1331;1
1332;2
1333;4
1334;-1
1335;0
1336;4
1337;-1
1338;0
1339;10
1340;10
1341;12
1342;20
1343;15
1344;13
1345;17
1346;2
1347;5
1348;-1
1349;0
1350;1
1351;-24
1352;-63
1353;-65
1354;-39
1355;-2
1356;36
1357;54
1358;52
1359;50
1360;42
1361;6
1362;9
1363;13
1364;53
1365;71
1366;74
1367;81
1368;17
1369;-70
1370;-106
1371;-94
1372;-68
1373;-53
1374;-259
1375;-361
1376;-280
1377;-39
1378;177
1379;311
1380;369
1381;324
1382;271
1383;119
1384;-30
1385;-107
1386;-85
1387;-25
1388;-2
1389;8
1390;-4
1391;-4
1392;-27
1393;-27
1394;-20
1395;-76
1396;-100
1397;-147
1398;-146
1399;-56
1400;59
1401;49
1402;77
1403;102
1404;143
1405;140
1406;151
1407;1
1408;-250
1409;-236
1410;-84
1411;-8
1412;-120
1413;-119
1414;-180
1415;-121
1416;140
1417;372
1418;219
1419;-266
1420;-308
1421;-188
1422;29
1423;120
1424;192
1425;215
1426;192
1427;220
1428;210
1429;59
1430;-18
1431;5
1432;58
1433;45
1434;-3
1435;25
1436;9
1437;-26
1438;-56
1439;-146
1440;-372
1441;-538
1442;-379
1443;-46
1444;81
1445;159
1446;233
1447;213
1448;185
1449;217
1450;243
1451;224
1452;182
1453;155
1454;118
1455;34
1456;-170
1457;-236
1458;-120
1459;61
1460;99
1461;-35
1462;-361
1463;-401
1464;-334
1465;-165
1466;-26
1467;43
1468;17
1469;-5
1470;36
1471;124
1472;169
1473;27
1474;-151
1475;-401
1476;-601
1477;-394
1478;-106
1479;-89
1480;78
1481;369
1482;520
1483;531
1484;446
1485;350
1486;244
1487;211
1488;159
1489;55
1490;-111
1491;-195
1492;-164
1493;-190
1494;-185
1495;-72
1496;173
1497;393
1498;430
1499;321
1500;177
1501;82
1502;13
1503;-99
1504;-210
1505;-239
1506;-230
1507;-177
1508;-150
1509;-164
1510;-179
1511;-125
1512;-23
1513;49
1514;124
1515;174
1516;144
1517;-60
1518;-125
1519;-4
1520;77
1521;44
1522;-60
1523;-149
1524;-287
1525;-306
1526;-304
1527;-334
1528;-247
1529;-6
1530;211
1531;234
1532;165
1533;48
1534;22
1535;71
1536;147
1537;228
1538;247
1539;201
1540;109
1541;48
1542;0
1543;-82
1544;-103
1545;-52
1546;-14
1547;-19
1548;-108
1549;-112
1550;-31
1551;32
1552;7
1553;-55
1554;-14
1555;63
1556;149
1557;166
1558;132
1559;44
1560;-24
1561;-51
1562;-20
1563;9
1564;-13
1565;-15
1566;-15
1567;8
1568;16
1569;3
1570;-8
1571;-18
1572;-37
1573;-45
1574;-3
1575;44
1576;44
1577;46
1578;37
1579;16
1580;-18
1581;-34
1582;-30
1583;-28
1584;-40
1585;-59
1586;-61
1587;-30
1588;-12
1589;-6
1590;0
1591;-13
1592;-27
1593;-11
1594;-3
1595;1
1596;4
1597;3
1598;4
1599;5
1600;3
1601;0
1602;-1
1603;-5
1604;-5
1605;-3
1606;4
1607;15
1608;15
1609;11
1610;1
1611;-2
1612;0
1613;-4
1614;3
1615;1
1616;-2
1617;5
1618;-8
1619;-2
1620;-5
1621;-6
1622;-3
1623;-2
1624;-3
1625;-7
1626;0
1627;0
1628;-6
1629;-3
1630;-1
1631;-3
1632;-6
1633;-2
1634;-7
1635;-2
1636;-6
1637;-6
1638;-10
1639;-5
1640;-8
1641;-6
1642;-6
1643;-9
1644;-8
1645;2
1646;-7
1647;-7
1648;-6
1649;-7
1650;-5
1651;0
1652;0
1653;-2
1654;5
1655;0
1656;-1
1657;-6
1658;-1
1659;-11
1660;-11
1661;-2
1662;-7
1663;-9
1664;0
1665;-1
1666;-5
1667;2
1668;3
1669;8
1670;-5
1671;2
1672;-5
1673;0
1674;-5
1675;-11
1676;0
1677;-4
1678;-7
1679;0
1680;0
1681;0
1682;0
1683;0
1684;1
1685;2
1686;0
1687;0
1688;-2
1689;-8
1690;-2
1691;-12
1692;-1
1693;-10
1694;-4
1695;-6
1696;-5
1697;0
1698;-3
1699;-8
1700;-2
1701;0
1702;10
1703;2
1704;0
1705;1
1706;-3
1707;0
1708;1
1709;5
1710;5
1711;0
1712;2
1713;0
1714;-2
1715;0
1716;-3
1717;0
1718;-2
1719;-1
1720;-7
1721;0
1722;-1
1723;-3
1724;0
1725;0
1726;-2
1727;-2
1728;-5
1729;0
1730;2
1731;0
1732;-3
1733;5
1734;7
1735;7
1736;3
1737;4
1738;-3
1739;-3
1740;-3
1741;-4
1742;-4
1743;0
1744;-2
1745;-4
1746;-3
1747;-8
1748;-10
1749;-6
1750;-2
1751;-10
1752;-5
1753;-6
1754;-10
1755;-3
1756;-5
1757;-9
1758;-5
1759;-10
1760;-9
1761;-7
1762;-11
1763;-6
1764;-9
1765;-9
1766;-7
1767;-5
1768;-3
1769;-5
1770;-4
1771;-4
1772;-6
1773;0
1774;-8
1775;0
1776;-5
1777;-6
1778;-3
1779;0
1780;0
1781;2
1782;-1
1783;-8
1784;-7
1785;-5
1786;0
1787;-1
1788;0
1789;6
1790;-2
1791;-6
1792;-4
1793;-12
1794;-7
1795;-6
1796;-4
1797;-4
1798;-5
1799;-13
1800;-2
1801;-6
1802;-7
1803;0
1804;-5
1805;3
1806;-2
1807;-1
1808;-1
1809;3
1810;-2
1811;-5
1812;-2
1813;1
1814;-1
1815;-4
1816;2
1817;-4
1818;0
1819;-5
1820;-7
1821;6
1822;4
1823;0
1824;0
1825;4
1826;-8
1827;-2
1828;0
1829;0
1830;3
1831;6
1832;9
1833;10
1834;2
1835;-3
1836;-1
1837;0
1838;6
1839;5
1840;0
1841;1
1842;1
1843;0
1844;7
1845;0
1846;0
1847;5
1848;0
1849;3
1850;0
1851;0
1852;2
1853;0
1854;-1
1855;5
1856;0
1857;-3
1858;-4
1859;1
1860;0
1861;0
1862;-1
1863;-2
1864;0
1865;0
1866;0
1867;1
1868;1
1869;0
1870;0
1871;-2
1872;0
1873;2
1874;1
1875;2
1876;4
1877;9
1878;6
1879;2
1880;-2
1881;2
1882;3
1883;0
1884;1
1885;2
1886;2
1887;0
1888;-1
1889;-6
1890;-1
1891;-11
1892;-3
1893;0
1894;0
1895;2
1896;-1
1897;11
1898;6
1899;4
1900;9
1901;8
1902;8
1903;-1
1904;-3
1905;-4
1906;0
1907;0
1908;0
1909;1
1910;3
1911;1
1912;0
1913;1
1914;6
1915;0
1916;7
1917;5
1918;6
1919;0
1920;1
1921;0
1922;-3
1923;-7
1924;-10
1925;0
1926;2
1927;-2
1928;0
1929;5
1930;9
1931;7
1932;0
1933;2
1934;-1
1935;0
1936;1
1937;0
1938;-3
1939;0
1940;-2
1941;-9
1942;-5
1943;0
1944;-5
1945;-1
1946;0
1947;-9
1948;-1
1949;-9
1950;2
1951;-3
1952;-3
1953;0
1954;0
1955;0
1956;1
1957;4
1958;8
1959;4
1960;8
1961;4
1962;0
1963;1
1964;3
1965;4
1966;1
1967;-4
1968;2
1969;5
1970;3
1971;1
1972;-4
1973;-3
1974;-5
1975;0
1976;6
1977;0
1978;0
1979;-1
1980;-1
1981;-5
1982;0
1983;5
1984;-3
1985;0
1986;-6
1987;-3
1988;0
1989;-5
1990;0
1991;2
1992;-7
1993;1
1994;0
1995;-1
1996;-4
1997;0
1998;1
1999;-2
2000;-4
2001;-5
2002;-7
2003;-1
2004;-5
2005;0
2006;0
2007;1
2008;0
2009;4
2010;0
2011;-2
2012;0
2013;1
2014;-5
2015;0
2016;5
2017;6
2018;-5
2019;0
2020;-3
2021;-2
2022;0
2023;9
2024;17
2025;20
2026;22
2027;15
2028;6
2029;4
2030;2
2031;-3
2032;0
2033;4
2034;-21
2035;-60
2036;-74
2037;-49
2038;-4
2039;23
2040;44
2041;47
2042;45
2043;28
2044;10
2045;41
2046;40
2047;65
2048;57
2049;31
2050;-3
2051;-92
2052;-140
2053;-159
2054;-109
2055;-137
2056;-154
2057;-69
2058;28
2059;127
2060;29
2061;-40
2062;22
2063;150
2064;234
2065;184
2066;97
2067;58
2068;75
2069;81
2070;2
2071;-45
2072;38
2073;132
2074;211
2075;169
2076;20
2077;-71
2078;-137
2079;-207
2080;-271
2081;-291
2082;-230
2083;-176
2084;-200
2085;-227
2086;-163
2087;-63
2088;89
2089;259
2090;166
2091;167
2092;226
2093;213
2094;140
2095;55
2096;-26
2097;-76
2098;-201
2099;-166
2100;-183
2101;-68
2102;51
2103;141
2104;80
2105;-75
2106;-26
2107;144
2108;226
2109;154
2110;-57
2111;-64
2112;94
2113;-41
2114;-291
2115;-380
2116;-176
2117;101
2118;246
2119;160
2120;4
2121;-3
2122;84
2123;122
2124;-88
2125;-347
2126;-164
2127;180
2128;409
2129;472
2130;433
2131;372
2132;317
2133;244
2134;132
2135;-34
2136;-281
2137;-618
2138;-644
2139;-474
2140;-230
2141;-100
2142;-172
2143;-161
2144;-50
2145;63
2146;105
2147;-52
2148;-87
2149;-55
2150;203
2151;422
2152;417
2153;-11
2154;-145
2155;-38
2156;15
2157;-15
2158;-97
2159;-152
2160;-107
2161;23
2162;61
2163;83
2164;169
2165;232
2166;142
2167;100
2168;-80
2169;-95
2170;11
2171;99
2172;-37
2173;-131
2174;-145
2175;-86
2176;16
2177;58
2178;89
2179;142
2180;171
2181;148
2182;76
2183;34
2184;5
2185;-26
2186;-99
2187;-111
2188;-42
2189;41
2190;114
2191;142
2192;120
2193;39
2194;3
2195;-23
2196;-151
2197;-201
2198;-363
2199;-493
2200;-330
2201;-89
2202;61
2203;139
2204;162
2205;147
2206;137
2207;138
2208;74
2209;58
2210;64
2211;59
2212;-43
2213;-96
2214;-76
2215;-37
2216;-33
2217;-99
2218;-141
2219;-174
2220;-107
2221;36
2222;190
2223;252
2224;105
2225;-85
2226;-119
2227;-31
2228;61
2229;77
2230;68
2231;7
2232;-96
2233;-148
2234;-92
2235;46
2236;157
2237;207
2238;138
2239;155
2240;182
2241;179
2242;43
2243;-44
2244;-86
2245;-91
2246;-52
2247;5
2248;5
2249;-20
2250;-62
2251;-99
2252;-100
2253;-75
2254;-43
2255;-18
2256;-25
2257;-26
2258;-12
2259;4
2260;51
2261;78
2262;75
2263;61
2264;44
2265;14
2266;16
2267;82
2268;100
2269;58
2270;14
2271;-17
2272;-38
2273;-53
2274;-52
2275;-55
2276;-39
2277;-27
2278;-32
2279;-34
2280;-19
2281;-2
2282;0
2283;-5
2284;-15
2285;-13
2286;-19
2287;-23
2288;-21
2289;-12
2290;-10
2291;-4
2292;-1
2293;4
2294;1
2295;2
2296;0
2297;-5
2298;-3
2299;-3
2300;-2
2301;-1
2302;2
2303;-1
2304;5
2305;-4
2306;2
2307;0
2308;1
2309;1
2310;0
2311;0
2312;-3
2313;-3
2314;-9
2315;-8
2316;-5
2317;-5
2318;-6
2319;1
2320;-5
2321;-7
2322;-2
2323;0
2324;-4
2325;-2
2326;3
2327;2
2328;0
2329;0
2330;-1
2331;-2
2332;-5
2333;-1
2334;-2
2335;-5
2336;-2
2337;-1
2338;-9
2339;-11
2340;-6
2341;0
2342;0
2343;-6
2344;0
2345;-1
2346;-4
2347;0
2348;-1
2349;-2
2350;-5
2351;0
2352;0
2353;-2
2354;-2
2355;-2
2356;-3
2357;-5
2358;-4
2359;-6
2360;0
2361;-12
2362;-3
2363;-10
2364;0
2365;0
2366;-1
2367;-2
2368;-6
2369;-3
2370;-6
2371;0
2372;-4
2373;-5
2374;-7
2375;-1
2376;-2
2377;1
2378;3
2379;2
2380;2
2381;4
2382;4
2383;0
2384;2
2385;2
2386;-3
2387;-7
2388;-6
2389;-7
2390;0
2391;0
2392;-1
2393;-1
2394;0
2395;0
2396;-3
2397;0
2398;-2
2399;1
2400;-2
2401;1
2402;3
2403;0
2404;-3
2405;-2
2406;0
2407;3
2408;4
2409;4
2410;-1
2411;-2
2412;-6
2413;-8
2414;-4
2415;-8
2416;-1
2417;3
2418;6
2419;11
2420;-1
2421;2
2422;-3
2423;0
2424;2
2425;0
2426;-3
2427;-1
2428;-5
2429;0
2430;0
2431;-3
2432;0
2433;-2
2434;3
2435;0
2436;-7
2437;-2
2438;0
2439;-1
2440;0
2441;0
2442;-6
2443;-2
2444;-5
2445;-9
2446;-11
2447;-7
2448;-7
2449;-10
2450;-1
2451;-2
2452;-7
2453;-3
2454;-7
2455;-10
2456;-11
2457;-7
2458;-14
2459;-19
2460;-11
2461;-8
2462;-9
2463;-5
2464;-4
2465;-8
2466;-1
2467;-13
2468;-10
2469;-6
2470;-1
2471;0
2472;-5
2473;0
2474;-8
2475;-3
2476;-6
2477;-7
2478;-3
2479;-4
2480;-5
2481;0
2482;-7
2483;-7
2484;-3
2485;-2
2486;-2
2487;-8
2488;-3
2489;-2
2490;2
2491;0
2492;2
2493;-10
2494;-7
2495;-1
2496;-10
2497;-9
2498;-4
2499;-4
2500;5
2501;2
2502;-2
2503;2
2504;-2
2505;-2
2506;-2
2507;-5
2508;0
2509;2
2510;-1
2511;0
2512;0
2513;0
2514;1
2515;6
2516;9
2517;-2
2518;2
2519;0
2520;-2
2521;-1
2522;0
2523;-1
2524;2
2525;6
2526;8
2527;1
2528;1
2529;1
2530;0
2531;-2
2532;-4
2533;-1
2534;1
2535;4
2536;14
2537;3
2538;0
2539;0
2540;1
2541;0
2542;3
2543;-7
2544;3
2545;0
2546;-4
2547;0
2548;0
2549;2
2550;0
2551;-7
2552;0
2553;-1
2554;3
2555;-2
2556;1
2557;0
2558;0
2559;-8
2560;-3
2561;0
2562;9
2563;4
2564;5
2565;6
2566;0
2567;1
2568;0
2569;-1
2570;5
2571;4
2572;1
2573;-4
2574;1
2575;2
2576;0
2577;-1
2578;2
2579;0
2580;4
2581;4
2582;2
2583;2
2584;0
2585;-4
2586;0
2587;0
2588;3
2589;2
2590;0
2591;4
2592;3
2593;4
2594;-2
2595;-4
2596;-2
2597;1
2598;-6
2599;-5
2600;-7
2601;-10
2602;-6
2603;-2
2604;-3
2605;0
2606;2
2607;-1
2608;0
2609;-3
2610;-2
2611;-3
2612;0
2613;3
2614;12
2615;0
2616;0
2617;-5
2618;0
2619;-2
2620;0
2621;-3
2622;-3
2623;-7
2624;-2
2625;1
2626;-7
2627;-6
2628;-3
2629;4
2630;2
2631;4
2632;0
2633;0
2634;4
2635;-2
2636;-4
2637;0
2638;-2
2639;-4
2640;-1
2641;1
2642;3
2643;2
2644;0
2645;3
2646;0
2647;-1
2648;0
2649;-1
2650;-1
2651;4
2652;0
2653;-3
2654;0
2655;-4
2656;0
2657;-2
2658;1
2659;-2
2660;-6
2661;-1
2662;2
2663;0
2664;0
2665;-3
2666;-3
2667;2
2668;-2
2669;2
2670;0
2671;-3
2672;1
2673;-2
2674;0
2675;-1
2676;0
2677;-1
2678;2
2679;-1
2680;-1
2681;0
2682;-3
2683;0
2684;3
2685;0
2686;-2
2687;3
2688;0
2689;4
2690;0
2691;1
2692;4
2693;2
2694;0
2695;-2
2696;-4
2697;0
2698;0
2699;1
2700;6
2701;8
2702;8
2703;0
2704;-3
2705;-3
2706;8
2707;13
2708;10
2709;20
2710;11
2711;4
2712;2
2713;3
2714;0
2715;-7
2716;-42
2717;-93
2718;-78
2719;-33
2720;38
2721;79
2722;89
2723;79
2724;81
2725;41
2726;-52
2727;-72
2728;1
2729;83
2730;127
2731;120
2732;16
2733;-49
2734;-86
2735;-103
2736;-128
2737;-126
2738;-176
2739;-198
2740;-73
2741;77
2742;122
2743;110
2744;95
2745;95
2746;154
2747;213
2748;124
2749;46
2750;-20
2751;-86
2752;-113
2753;-137
2754;-124
2755;-80
2756;20
2757;84
2758;187
2759;202
2760;199
2761;81
2762;0
2763;-128
2764;-160
2765;-221
2766;-327
2767;-394
2768;-253
2769;-9
2770;250
2771;430
2772;392
2773;265
2774;130
2775;-2
2776;-188
2777;-330
2778;-350
2779;-259
2780;-112
2781;6
2782;100
2783;134
2784;-35
2785;-47
2786;-19
2787;114
2788;172
2789;82
2790;54
2791;99
2792;-69
2793;-218
2794;-96
2795;198
2796;257
2797;147
2798;27
2799;-17
2800;-50
2801;-113
2802;-102
2803;-55
2804;-23
2805;69
2806;162
2807;205
2808;233
2809;181
2810;-94
2811;-282
2812;-244
2813;-234
2814;-129
2815;34
2816;171
2817;217
2818;244
2819;216
2820;66
2821;-152
2822;-376
2823;-406
2824;-167
2825;63
2826;204
2827;200
2828;-64
2829;-507
2830;-559
2831;-204
2832;56
2833;176
2834;165
2835;235
2836;275
2837;260
2838;177
2839;83
2840;-148
2841;-265
2842;-198
2843;-9
2844;161
2845;246
2846;243
2847;167
2848;58
2849;55
2850;76
2851;110
2852;80
2853;51
2854;-13
2855;-83
2856;-101
2857;-96
2858;-69
2859;-45
2860;25
2861;101
2862;113
2863;-41
2864;-216
2865;-232
2866;25
2867;325
2868;426
2869;387
2870;224
2871;25
2872;-163
2873;-267
2874;-292
2875;-238
2876;-187
2877;-205
2878;-254
2879;-273
2880;-157
2881;-105
2882;-105
2883;-54
2884;-25
2885;14
2886;15
2887;21
2888;3
2889;6
2890;62
2891;107
2892;53
2893;126
2894;204
2895;216
2896;218
2897;154
2898;76
2899;32
2900;-60
2901;-119
2902;-193
2903;-283
2904;-180
2905;13
2906;142
2907;182
2908;153
2909;1
2910;-63
2911;-21
2912;13
2913;11
2914;29
2915;47
2916;108
2917;115
2918;83
2919;17
2920;-15
2921;-37
2922;-35
2923;-9
2924;-10
2925;-39
2926;-27
2927;-64
2928;-135
2929;-155
2930;-131
2931;-47
2932;-34
2933;25
2934;45
2935;18
2936;32
2937;60
2938;35
2939;55
2940;84
2941;125
2942;206
2943;206
2944;131
2945;49
2946;-44
2947;-113
2948;-133
2949;-92
2950;-37
2951;0
2952;16
2953;-3
2954;-10
2955;-4
2956;-23
2957;-40
2958;-66
2959;-71
2960;-51
2961;-28
2962;-12
2963;2
2964;17
2965;25
2966;18
2967;15
2968;11
2969;3
2970;0
2971;-1
2972;-4
2973;2
2974;2
2975;-7
2976;-5
2977;-2
2978;0
2979;0
2980;-10
2981;-12
2982;-2
2983;-3
2984;-19
2985;-13
2986;-17
2987;-15
2988;0
2989;-4
2990;-5
2991;-7
2992;0
2993;0
2994;5
2995;6
2996;0
2997;-1
2998;-3
2999;-9
3000;-8
3001;-19
3002;-4
3003;-6
3004;-11
3005;-5
3006;-5
3007;-2
3008;0
3009;0
3010;1
3011;0
3012;0
3013;-4
3014;-1
3015;3
3016;-11
3017;-8
3018;-4
3019;1
3020;-4
3021;0
3022;-4
3023;-10
3024;-4
3025;-3
3026;-4
3027;0
3028;-3
3029;-1
3030;-4
3031;4
3032;3
3033;0
3034;-5
3035;-5
3036;-9
3037;-3
3038;3
3039;-1
3040;0
3041;0
3042;-4
3043;5
3044;0
3045;-5
3046;-6
3047;0
3048;3
3049;-1
3050;1
3051;1
3052;-3
3053;-4
3054;0
3055;0
3056;-3
3057;-3
3058;-1
3059;-7
3060;-1
3061;1
3062;1
3063;1
3064;1
3065;0
3066;-7
3067;-13
3068;-6
3069;-4
3070;-2
3071;-5
3072;-2
3073;1
3074;0
3075;0
3076;-4
3077;9
3078;3
3079;1
3080;3
3081;-5
3082;0
3083;-4
3084;-1
3085;-5
3086;-6
3087;-5
3088;-1
3089;0
3090;6
3091;1
3092;0
3093;5
3094;-1
3095;-2
3096;-2
3097;-3
3098;-8
3099;-8
3100;1
3101;0
3102;-13
3103;-2
3104;-6
3105;-7
3106;-8
3107;-3
3108;-5
3109;-1
3110;-5
3111;-5
3112;0
3113;-4
3114;-9
3115;-3
3116;-15
3117;-10
3118;-3
3119;-6
3120;-5
3121;-8
3122;0
3123;-10
3124;-5
3125;-2
3126;-8
3127;-11
3128;-6
3129;1
3130;-2
3131;0
3132;-3
3133;-5
3134;-6
3135;-4
3136;-2
3137;-10
3138;-16
3139;-11
3140;-9
3141;0
3142;0
3143;0
3144;0
3145;0
3146;-3
3147;-7
3148;-5
3149;-11
3150;-3
3151;-5
3152;-14
3153;-7
3154;-5
3155;-1
3156;0
3157;-3
3158;-3
3159;-2
3160;0
3161;0
3162;-1
3163;-6
3164;-6
3165;-5
3166;-2
3167;-1
3168;0
3169;-3
3170;-1
3171;-7
3172;-3
3173;0
3174;-5
3175;0
3176;-2
3177;-2
3178;-1
3179;-6
3180;5
3181;2
3182;4
3183;0
3184;6
3185;0
3186;-3
3187;-2
3188;0
3189;-1
3190;2
3191;4
3192;5
3193;5
3194;-2
3195;-4
3196;1
3197;-5
3198;0
3199;-1
3200;0
3201;4
3202;4
3203;5
3204;10
3205;2
3206;1
3207;-2
3208;0
3209;0
3210;-3
3211;0
3212;0
3213;-7
3214;0
3215;2
3216;-1
3217;-6
3218;-10
3219;-10
3220;-6
3221;-1
3222;-5
3223;1
3224;9
3225;5
3226;13
3227;2
3228;2
3229;6
3230;-3
3231;0
3232;9
3233;3
3234;0
3235;0
3236;-5
3237;-9
3238;-3
3239;-5
3240;-3
3241;-3
3242;-8
3243;-7
3244;-2
3245;0
3246;-2
3247;0
3248;0
3249;-3
3250;8
3251;7
3252;-1
3253;8
3254;6
3255;3
3256;0
3257;-2
3258;3
3259;3
3260;0
3261;0
3262;-5
3263;1
3264;2
3265;1
3266;0
3267;6
3268;1
3269;-4
3270;0
3271;-2
3272;1
3273;1
3274;6
3275;-1
3276;-1
3277;0
3278;-1
3279;0
3280;-1
3281;0
3282;0
3283;-1
3284;1
3285;-2
3286;-2
3287;-7
3288;-1
3289;3
3290;0
3291;1
3292;0
3293;-5
3294;-7
3295;-3
3296;0
3297;-3
3298;0
3299;-2
3300;3
3301;-6
3302;1
3303;-3
3304;-1
3305;-3
3306;-1
3307;0
3308;-3
3309;0
3310;0
3311;-4
3312;-3
3313;0
3314;0
3315;0
3316;0
3317;-2
3318;-3
3319;2
3320;1
3321;3
3322;0
3323;6
3324;5
3325;6
3326;4
3327;0
3328;0
3329;0
3330;-2
3331;0
3332;0
3333;2
3334;0
3335;-1
3336;8
3337;6
3338;3
3339;2
3340;2
3341;0
3342;3
3343;0
3344;0
3345;-2
3346;-2
3347;0
3348;6
3349;0
3350;5
3351;4
3352;0
3353;-3
3354;-3
3355;0
3356;0
3357;0
3358;-3
3359;-3
3360;2
3361;-1
3362;-2
3363;1
3364;-4
3365;-2
3366;-2
3367;0
3368;4
3369;-1
3370;0
3371;4
3372;-1
3373;0
3374;-3
3375;0
3376;2
3377;1
3378;-2
3379;3
3380;4
3381;1
3382;-6
3383;-3
3384;1
3385;2
3386;0
3387;-42
3388;-49
3389;-33
3390;-12
3391;19
3392;37
3393;54
3394;58
3395;55
3396;55
3397;30
3398;22
3399;-3
3400;-10
3401;-2
3402;-7
3403;5
3404;1
3405;-20
3406;-26
3407;-5
3408;42
3409;83
3410;101
3411;86
3412;13
3413;-121
3414;-239
3415;-214
3416;-87
3417;-15
3418;-9
3419;-30
3420;-169
3421;-158
3422;-15
3423;166
3424;291
3425;288
3426;47
3427;-149
3428;-4
3429;172
3430;230
3431;212
3432;136
3433;69
3434;8
3435;-101
3436;-231
3437;-289
3438;-244
3439;-89
3440;39
3441;132
3442;151
3443;190
3444;192
3445;146
3446;3
3447;-127
3448;-200
3449;-386
3450;-443
3451;-288
3452;-211
3453;-236
3454;-80
3455;157
3456;119
3457;166
3458;293
3459;369
3460;247
3461;6
3462;-142
3463;-49
3464;153
3465;39
3466;-120
3467;-19
3468;203
3469;291
3470;156
3471;-41
3472;-118
3473;-76
3474;-75
3475;-89
3476;-47
3477;38
3478;138
3479;116
3480;18
3481;-72
3482;-145
3483;-129
3484;-109
3485;-123
3486;-49
3487;130
3488;274
3489;342
3490;278
3491;100
3492;-39
3493;-198
3494;-436
3495;-395
3496;-178
3497;-10
3498;106
3499;96
3500;-267
3501;-633
3502;-623
3503;-223
3504;284
3505;484
3506;589
3507;573
3508;488
3509;321
3510;227
3511;131
3512;31
3513;18
3514;-19
3515;-109
3516;-77
3517;-446
3518;-662
3519;-345
3520;145
3521;475
3522;580
3523;411
3524;188
3525;-13
3526;-137
3527;-172
3528;-122
3529;-63
3530;-31
3531;-83
3532;-207
3533;-226
3534;-140
3535;-41
3536;-32
3537;-83
3538;-115
3539;-93
3540;27
3541;134
3542;178
3543;211
3544;128
3545;63
3546;7
3547;-23
3548;-55
3549;-127
3550;-112
3551;31
3552;60
3553;-102
3554;-189
3555;-32
3556;117
3557;161
3558;150
3559;36
3560;-214
3561;-377
3562;-267
3563;-62
3564;48
3565;74
3566;91
3567;21
3568;-165
3569;-241
3570;-175
3571;63
3572;247
3573;317
3574;284
3575;186
3576;109
3577;74
3578;34
3579;11
3580;28
3581;44
3582;-86
3583;-205
3584;-180
3585;-57
3586;39
3587;84
3588;28
3589;-48
3590;-89
3591;-50
3592;5
3593;22
3594;70
3595;69
3596;63
3597;68
3598;107
3599;115
3600;120
3601;115
3602;106
3603;124
3604;91
3605;13
3606;-103
3607;-161
3608;-186
3609;-151
3610;-104
3611;-46
3612;-14
3613;-13
3614;-24
3615;-18
3616;-17
3617;-18
3618;-28
3619;-45
3620;-45
3621;-39
3622;-23
3623;0
3624;18
3625;22
3626;30
3627;27
3628;32
3629;34
3630;-20
3631;-46
3632;-58
3633;-68
3634;-38
3635;2
3636;52
3637;68
3638;75
3639;66
3640;41
3641;36
3642;20
3643;9
3644;2
3645;0
3646;2
3647;2
3648;0
3649;1
3650;5
3651;-3
3652;-1
3653;2
3654;-3
3655;-7
3656;0
3657;-3
3658;-4
3659;-2
3660;-5
3661;-6
3662;-15
3663;-25
3664;-19
3665;-18
3666;-17
3667;-13
3668;-11
3669;-3
3670;-4
3671;-8
3672;0
3673;-4
3674;-8
3675;-6
3676;-1
3677;-7
3678;-6
3679;-6
3680;-10
3681;-6
3682;0
3683;0
3684;-9
3685;-2
3686;-6
3687;-10
3688;-14
3689;-6
3690;-10
3691;-7
3692;-2
3693;4
3694;3
3695;0
3696;-5
3697;-2
3698;0
3699;-4
3700;-3
3701;-7
3702;-9
3703;-9
3704;-4
3705;1
3706;0
3707;2
3708;-2
3709;-8
3710;0
3711;0
3712;-2
3713;1
3714;0
3715;-8
3716;-9
3717;-12
3718;-6
3719;-6
3720;0
3721;2
3722;-2
3723;-8
3724;-7
3725;-7
3726;1
3727;7
3728;3
3729;-3
3730;-3
3731;-4
3732;-6
3733;-3
3734;-9
3735;-3
3736;-4
3737;-10
3738;-2
3739;-11
3740;-2
3741;5
3742;-3
3743;1
3744;-1
3745;-6
3746;-4
3747;-3
3748;3
3749;0
3750;6
3751;7
3752;15
3753;3
3754;0
3755;5
3756;-1
3757;3
3758;0
3759;0
3760;-2
3761;-12
3762;-1
3763;-7
3764;-9
3765;-1
3766;-5
3767;2
3768;2
3769;0
3770;-4
3771;0
3772;0
3773;0
3774;5
3775;-3
3776;-2
3777;2
3778;-2
3779;6
3780;0
3781;6
3782;1
3783;-4
3784;-5
3785;-1
3786;-4
3787;-2
3788;-9
3789;-7
3790;0
3791;0
3792;0
3793;0
3794;-8
3795;0
3796;-10
3797;-9
3798;-4
3799;-2
3800;-9
3801;-7
3802;-7
3803;-2
3804;-2
3805;-6
3806;-11
3807;-6
3808;-11
3809;0
3810;-9
3811;-5
3812;-8
3813;-8
3814;-7
3815;-14
3816;-14
3817;-6
3818;-6
3819;-8
3820;-8
3821;-13
3822;-9
3823;-10
3824;-11
3825;-6
3826;0
3827;2
3828;0
3829;-1
3830;0
3831;3
3832;3
3833;4
3834;0
3835;-5
3836;-3
3837;-2
3838;-1
3839;1
3840;0
3841;-2
3842;4
3843;-3
3844;-5
3845;-9
3846;-9
3847;-6
3848;-3
3849;-2
3850;-2
3851;-4
3852;0
3853;-2
3854;-4
3855;-3
3856;-5
3857;0
3858;0
3859;-8
3860;-5
3861;-4
3862;0
3863;-4
3864;0
3865;5
3866;3
3867;3
3868;2
3869;5
3870;0
3871;0
3872;5
3873;0
3874;2
3875;5
3876;4
3877;1
3878;4
3879;0
3880;-3
3881;0
3882;1
3883;5
3884;7
3885;4
3886;5
3887;6
3888;0
3889;5
3890;1
3891;-3
3892;0
3893;-7
3894;0
3895;-4
3896;0
3897;1
3898;0
3899;-5
3900;1
3901;-1
3902;2
3903;2
3904;-2
3905;5
3906;0
3907;3
3908;8
3909;5
3910;6
3911;-2
3912;1
3913;-5
3914;-7
3915;0
3916;-3
3917;-3
3918;2
3919;4
3920;3
3921;5
3922;1
3923;2
3924;4
3925;2
3926;-4
3927;-5
3928;0
3929;-4
3930;0
3931;2
3932;8
3933;0
3934;0
3935;4
3936;1
3937;0
3938;0
3939;3
3940;6
3941;2
3942;0
3943;3
3944;1
3945;0
3946;0
3947;-7
3948;-6
3949;2
3950;0
3951;-3
3952;-2
3953;0
3954;0
3955;5
3956;1
3957;1
3958;-1
3959;0
3960;-1
3961;0
3962;-5
3963;-6
3964;-5
3965;-10
3966;-5
3967;-1
3968;7
3969;1
3970;4
3971;-5
3972;3
3973;0
3974;-9
3975;-7
3976;-5
3977;-3
3978;-9
3979;-1
3980;-9
3981;-7
3982;-1
3983;-9
3984;-2
3985;3
3986;-3
3987;-4
3988;-12
3989;-9
3990;-2
3991;-3
3992;0
3993;8
3994;6
3995;4
3996;4
3997;1
3998;-3
3999;0
4000;-2
4001;1
4002;-2
4003;0
4004;12
4005;1
4006;1
4007;2
4008;2
4009;0
4010;0
4011;0
4012;-4
4013;4
4014;6
4015;6
4016;6
4017;0
4018;0
4019;1
4020;-4
4021;0
4022;0
4023;-3
4024;-5
4025;-1
4026;1
4027;0
4028;0
4029;-1
4030;-2
4031;0
4032;1
4033;1
4034;0
4035;0
4036;-4
4037;2
4038;-8
4039;-3
4040;0
4041;-2
4042;-2
4043;-3
4044;2
4045;6
4046;0
4047;0
4048;6
4049;-3
4050;-4
4051;0
4052;-1
4053;-1
4054;-1
4055;-3
4056;1
4057;7
4058;11
4059;5
4060;0
4061;7
4062;0
4063;2
4064;0
4065;5
4066;11
4067;23
4068;25
4069;6
4070;-2
4071;-3
4072;-4
4073;-45
4074;-57
4075;-37
4076;-10
4077;21
4078;37
4079;55
4080;55
4081;42
4082;58
4083;55
4084;69
4085;54
4086;4
4087;-40
4088;-71
4089;-85
4090;-51
4091;-5
4092;21
4093;25
4094;30
4095;50
4096;69
4097;-49
4098;-131
4099;-273
4100;-252
4101;-85
4102;39
4103;87
4104;97
4105;106
4106;127
4107;103
4108;8
4109;-69
4110;-70
4111;-8
4112;14
4113;8
4114;8
4115;83
4116;98
4117;126
4118;149
4119;181
4120;148
4121;74
4122;16
4123;-35
4124;-62
4125;-73
4126;-161
4127;-218
4128;-211
4129;-219
4130;-157
4131;24
4132;165
4133;210
4134;239
4135;176
4136;-54
4137;-254
4138;-233
4139;-250
4140;-230
4141;-138
4142;-27
4143;81
4144;141
4145;105
4146;32
4147;-26
4148;-183
4149;-318
4150;-444
4151;-260
4152;166
4153;548
4154;624
4155;545
4156;452
4157;301
4158;72
4159;-96
4160;-80
4161;-96
4162;-43
4163;15
4164;12
4165;52
4166;54
4167;-58
4168;-253
4169;-273
4170;-402
4171;-487
4172;-361
4173;-73
4174;222
4175;325
4176;286
4177;215
4178;168
4179;107
4180;-108
4181;-268
4182;-144
4183;79
4184;228
4185;281
4186;255
4187;130
4188;-235
4189;-414
4190;-252
4191;-10
4192;186
4193;59
4194;-222
4195;-186
4196;23
4197;239
4198;243
4199;227
4200;162
4201;151
4202;140
4203;55
4204;5
4205;-35
4206;-107
4207;-246
4208;-263
4209;-154
4210;-37
4211;-78
4212;-88
4213;-4
4214;118
4215;-125
4216;-193
4217;-48
4218;102
4219;181
4220;168
4221;36
4222;-86
4223;-174
4224;-138
4225;-99
4226;24
4227;182
4228;291
4229;303
4230;202
4231;-15
4232;-214
4233;-281
4234;-154
4235;52
4236;192
4237;194
4238;158
4239;101
4240;-29
4241;-379
4242;-369
4243;-138
4244;149
4245;304
4246;290
4247;197
4248;44
4249;-58
4250;-14
4251;71
4252;80
4253;-86
4254;-102
4255;-10
4256;20
4257;-14
4258;-94
4259;-151
4260;-117
4261;-70
4262;-49
4263;-172
4264;-259
4265;-195
4266;-88
4267;-11
4268;74
4269;127
4270;162
4271;161
4272;139
4273;123
4274;107
4275;78
4276;61
4277;51
4278;34
4279;28
4280;-54
4281;-78
4282;-29
4283;22
4284;0
4285;-42
4286;6
4287;8
4288;39
4289;106
4290;129
4291;98
4292;11
4293;-114
4294;-177
4295;-171
4296;-97
4297;-36
4298;1
4299;24
4300;21
4301;41
4302;44
4303;22
4304;-1
4305;-32
4306;-52
4307;-40
4308;-28
4309;-32
4310;-28
4311;-19
4312;17
4313;63
4314;98
4315;96
4316;72
4317;37
4318;1
4319;-49
4320;-64
4321;-61
4322;-63
4323;-26
4324;7
4325;38
4326;41
4327;36
4328;35
4329;18
4330;23
4331;12
4332;4
4333;-8
4334;-5
4335;-8
4336;-8
4337;-6
4338;4
4339;3
4340;-4
4341;-1
4342;5
4343;0
4344;-2
4345;-12
4346;-8
4347;-8
4348;-6
4349;-11
4350;-11
4351;-13
4352;-10
4353;-6
4354;1
4355;-4
4356;0
4357;0
4358;0
4359;-8
4360;-14
4361;-10
4362;-4
4363;-8
4364;-7
4365;-9
4366;-18
4367;-10
4368;-4
4369;0
4370;0
4371;0
4372;-5
4373;-5
4374;-9
4375;-10
4376;-9
4377;-9
4378;-6
4379;4
4380;0
4381;3
4382;-5
4383;-4
4384;-11
4385;0
4386;1
4387;0
4388;-5
4389;-5
4390;-1
4391;-4
4392;-2
4393;0
4394;0
4395;-3
4396;-2
4397;-6
4398;-3
4399;-8
4400;-5
4401;-6
4402;1
4403;0
4404;1
4405;0
4406;-2
4407;-2
4408;4
4409;-3
4410;1
4411;0
4412;0
4413;3
4414;2
4415;-8
4416;0
4417;0
4418;-5
4419;-7
4420;-2
4421;-2
4422;0
4423;1
4424;0
4425;0
4426;7
4427;0
4428;1
4429;3
4430;1
4431;2
4432;5
4433;10
4434;3
4435;0
4436;0
4437;0
4438;9
4439;3
4440;0
4441;-4
4442;-8
4443;-5
4444;-5
4445;-5
4446;-9
4447;-6
4448;1
4449;-8
4450;0
4451;5
4452;3
4453;0
4454;5
4455;3
4456;-7
4457;-5
4458;-1
4459;0
4460;-2
4461;-4
4462;1
4463;0
4464;0
4465;6
4466;4
4467;0
4468;0
4469;0
4470;4
4471;0
4472;0
4473;-7
4474;-5
4475;-7
4476;-8
4477;-4
4478;-5
4479;0
4480;1
4481;-7
4482;-7
4483;-10
4484;-5
4485;-11
4486;-11
4487;-7
4488;-3
4489;-6
4490;-9
4491;-12
4492;-2
4493;-12
4494;-12
4495;-10
4496;-13
4497;-9
4498;-9
4499;-8
4500;-4
4501;-6
4502;-8
4503;0
4504;-8
4505;-4
4506;-12
4507;-10
4508;-13
4509;-9
4510;-12
4511;-4
4512;-4
4513;-2
4514;-2
4515;3
4516;1
4517;-8
4518;-5
4519;-4
4520;-3
4521;8
4522;-1
4523;0
4524;1
4525;-2
4526;1
4527;-1
4528;-5
4529;-6
4530;-9
4531;-13
4532;-6
4533;-10
4534;-1
4535;-3
4536;-1
4537;0
4538;0
4539;7
4540;6
4541;5
4542;2
4543;1
4544;0
4545;-2
4546;-2
4547;-3
4548;-2
4549;-6
4550;-14
4551;-11
4552;0
4553;-8
4554;0
4555;-1
4556;0
4557;0
4558;5
4559;9
4560;8
4561;2
4562;6
4563;4
4564;0
4565;-2
4566;8
4567;3
4568;7
4569;7
4570;6
4571;0
4572;-2
4573;2
4574;3
4575;0
4576;0
4577;0
4578;-1
4579;-3
4580;-6
4581;3
4582;2
4583;0
4584;-1
4585;0
4586;1
4587;-3
4588;-7
4589;0
4590;-1
4591;-4
4592;0
4593;3
4594;0
4595;0
4596;1
4597;2
4598;1
4599;1
4600;-2
4601;3
4602;0
4603;0
4604;0
4605;-6
4606;0
4607;-2
4608;-7
4609;0
4610;-1
4611;-1
4612;-10
4613;-8
4614;-2
4615;2
4616;8
4617;8
4618;6
4619;3
4620;10
4621;6
4622;4
4623;7
4624;5
4625;1
4626;0
4627;0
4628;0
4629;-2
4630;-4
4631;-6
4632;-4
4633;1
4634;-4
4635;7
4636;5
4637;1
4638;1
4639;-3
4640;-7
4641;-2
4642;-6
4643;-9
4644;-4
4645;-9
4646;-6
4647;-5
4648;-1
4649;-3
4650;-4
4651;5
4652;0
4653;4
4654;3
4655;4
4656;0
4657;2
4658;-4
4659;0
4660;2
4661;0
4662;0
4663;0
4664;5
4665;1
4666;2
4667;-2
4668;-6
4669;-6
4670;4
4671;7
4672;5
4673;2
4674;0
4675;0
4676;4
4677;-4
4678;-3
4679;-10
4680;-2
4681;0
4682;1
4683;7
4684;4
4685;1
4686;4
4687;7
4688;4
4689;1
4690;5
4691;3
4692;3
4693;3
4694;4
4695;3
4696;1
4697;0
4698;3
4699;4
4700;0
4701;0
4702;0
4703;-2
4704;3
4705;-1
4706;0
4707;-2
4708;1
4709;-6
4710;0
4711;-1
4712;-4
4713;-2
4714;1
4715;-1
4716;0
4717;-5
4718;0
4719;0
4720;1
4721;0
4722;0
4723;6
4724;4
4725;0
4726;-8
4727;1
4728;-2
4729;0
4730;-1
4731;-5
4732;0
4733;-4
4734;4
4735;-11
4736;-1
4737;0
4738;2
4739;-6
4740;6
4741;-2
4742;1
4743;2
4744;0
4745;1
4746;4
4747;3
4748;6
4749;7
4750;10
4751;9
4752;15
4753;9
4754;5
4755;0
4756;0
4757;5
4758;2
4759;-32
4760;-78
4761;-78
4762;-38
4763;4
4764;32
4765;49
4766;35
4767;31
4768;37
4769;32
4770;21
4771;8
4772;14
4773;44
4774;30
4775;37
4776;48
4777;57
4778;57
4779;43
4780;51
4781;-37
4782;-136
4783;-198
4784;-173
4785;-83
4786;-51
4787;-53
4788;-56
4789;-72
4790;-43
4791;-52
4792;-78
4793;-41
4794;26
4795;140
4796;226
4797;285
4798;224
4799;186
4800;165
4801;131
4802;86
4803;-49
4804;-81
4805;-56
4806;-8
4807;-43
4808;-207
4809;-262
4810;-204
4811;-149
4812;-138
4813;-90
4814;-77
4815;-106
4816;-25
4817;56
4818;118
4819;205
4820;260
4821;284
4822;132
4823;-16
4824;-34
4825;55
4826;157
4827;137
4828;-177
4829;-341
4830;-356
4831;-194
4832;8
4833;111
4834;35
4835;29
4836;-88
4837;-52
4838;60
4839;97
4840;113
4841;76
4842;70
4843;62
4844;79
4845;83
4846;-95
4847;-158
4848;-85
4849;86
4850;217
4851;263
4852;174
4853;58
4854;-55
4855;-143
4856;-142
4857;-244
4858;-301
4859;-271
4860;-225
4861;-237
4862;-228
4863;-86
4864;106
4865;307
4866;345
4867;324
4868;190
4869;235
4870;342
4871;364
4872;312
4873;177
4874;23
4875;-159
4876;-265
4877;-303
4878;-299
4879;-474
4880;-492
4881;-295
4882;-201
4883;-90
4884;97
4885;248
4886;347
4887;335
4888;300
4889;252
4890;64
4891;-126
4892;-228
4893;-143
4894;17
4895;104
4896;110
4897;17
4898;12
4899;8
4900;52
4901;35
4902;-25
4903;-113
4904;-264
4905;-361
4906;-440
4907;-258
4908;72
4909;160
4910;193
4911;279
4912;18
4913;-166
4914;-81
4915;22
4916;116
4917;270
4918;360
4919;238
4920;35
4921;-8
4922;-42
4923;-39
4924;34
4925;49
4926;-30
4927;-64
4928;-30
4929;12
4930;40
4931;52
4932;58
4933;39
4934;14
4935;-9
4936;-39
4937;-46
4938;-78
4939;-117
4940;-164
4941;-160
4942;-105
4943;-23
4944;0
4945;-3
4946;-6
4947;0
4948;-14
4949;-71
4950;32
4951;182
4952;272
4953;225
4954;150
4955;136
4956;59
4957;-77
4958;-127
4959;-150
4960;-131
4961;-78
4962;-13
4963;11
4964;5
4965;-14
4966;-11
4967;20
4968;32
4969;15
4970;-20
4971;-128
4972;-171
4973;-136
4974;-48
4975;47
4976;130
4977;164
4978;139
4979;101
4980;80
4981;61
4982;50
4983;3
4984;-126
4985;-119
4986;-38
4987;-30
4988;-78
4989;-117
4990;-126
4991;-38
4992;66
4993;169
4994;234
4995;215
4996;133
4997;57
4998;16
4999;-23
5000;-36
5001;-45
5002;-48
5003;-42
5004;-28
5005;-33
5006;-23
5007;-26
5008;-28
5009;-16
5010;-6
5011;-2
5012;-8
5013;3
5014;-2
5015;-9
5016;0
5017;0
5018;3
5019;0
5020;-11
5021;-14
5022;-14
5023;-6
5024;0
5025;-3
5026;0
5027;-3
5028;-7
5029;-15
5030;-13
5031;-4
5032;-11
5033;-7
5034;-8
5035;-2
5036;-5
5037;0
5038;2
5039;4
5040;1
5041;0
5042;-4
5043;-4
5044;-4
5045;-5
5046;-4
5047;-5
5048;-1
5049;0
5050;-3
5051;-3
5052;0
5053;0
5054;0
5055;-6
5056;-6
5057;-5
5058;-3
5059;-2
5060;-5
5061;0
5062;-6
5063;-5
5064;-6
5065;-1
5066;-4
5067;-1
5068;-1
5069;-4
5070;-8
5071;-4
5072;-6
5073;-6
5074;-5
5075;0
5076;0
5077;-4
5078;-1
5079;-6
5080;-10
5081;-7
5082;-6
5083;2
5084;0
5085;-2
5086;1
5087;0
5088;4
5089;-5
5090;-2
5091;-3
5092;-4
5093;-1
5094;6
5095;9
5096;0
5097;4
5098;4
5099;-3
5100;-3
5101;-5
5102;2
5103;-4
5104;-5
5105;-4
5106;0
5107;4
5108;2
5109;0
5110;4
5111;0
5112;5
5113;3
5114;5
5115;1
5116;-1
5117;-2
5118;-2
5119;-1
5120;-5
5121;0
5122;-2
5123;0
5124;1
5125;1
5126;-6
5127;0
5128;3
5129;-1
5130;0
5131;-7
5132;-8
5133;0
5134;-4
5135;4
5136;2
5137;1
5138;-2
5139;0
5140;0
5141;2
5142;5
5143;-2
5144;6
5145;-6
5146;-2
5147;4
5148;-3
5149;0
5150;-3
5151;-4
5152;1
5153;-10
5154;-6
5155;-1
5156;-3
5157;-7
5158;-6
5159;-12
5160;-5
5161;-7
5162;-2
5163;-7
5164;-12
5165;-15
5166;-11
5167;-2
5168;-4
5169;-2
5170;0
5171;-5
5172;-7
5173;-8
5174;-6
5175;-16
5176;-7
5177;-9
5178;-7
5179;-9
5180;-3
5181;-6
5182;-14
5183;-7
5184;0
5185;-7
5186;-12
5187;-2
5188;-6
5189;0
5190;-2
5191;-1
5192;-13
5193;-6
5194;-10
5195;-15
5196;-5
5197;-5
5198;-11
5199;-12
5200;-10
5201;-4
5202;-2
5203;-5
5204;1
5205;0
5206;0
5207;-2
5208;4
5209;-5
5210;-6
5211;-10
5212;-5
5213;-3
5214;-7
5215;-10
5216;-1
5217;1
5218;6
5219;3
5220;1
5221;5
5222;0
5223;0
5224;-1
5225;-2
5226;0
5227;-5
5228;-3
5229;0
5230;0
5231;1
5232;-2
5233;-1
5234;-3
5235;-3
5236;0
5237;0
5238;3
5239;2
5240;6
5241;5
5242;0
5243;0
5244;0
5245;1
5246;-5
5247;-5
5248;-6
5249;-6
5250;0
5251;5
5252;14
5253;7
5254;7
5255;5
5256;4
5257;0
5258;4
5259;0
5260;7
5261;-1
5262;-3
5263;3
5264;4
5265;-1
5266;0
5267;-6
5268;-1
5269;0
5270;-1
5271;-3
5272;-3
5273;0
5274;-1
5275;3
5276;7
5277;5
5278;0
5279;4
5280;4
5281;0
5282;2
5283;1
5284;-4
5285;-3
5286;-2
5287;-1
5288;2
5289;1
5290;5
5291;7
5292;0
5293;4
5294;6
5295;5
5296;10
5297;1
5298;3
5299;2
5300;6
5301;0
5302;2
5303;6
5304;1
5305;-2
5306;0
5307;1
5308;-1
5309;-1
5310;1
5311;4
5312;0
5313;5
5314;-2
5315;0
5316;3
5317;6
5318;3
5319;6
5320;3
5321;0
5322;3
5323;0
5324;-9
5325;0
5326;-8
5327;-14
5328;-9
5329;0
5330;0
5331;6
5332;0
5333;0
5334;0
5335;-4
5336;-1
5337;-5
5338;-3
5339;-3
5340;9
5341;7
5342;5
5343;0
5344;-1
5345;1
5346;2
5347;5
5348;5
5349;9
5350;-1
5351;-1
5352;-1
5353;-6
5354;-1
5355;3
5356;-2
5357;2
5358;1
5359;-2
5360;0
5361;1
5362;2
5363;-3
5364;1
5365;1
5366;0
5367;-4
5368;0
5369;4
5370;8
5371;0
5372;0
5373;0
5374;-2
5375;1
5376;0
5377;0
5378;-3
5379;0
5380;-2
5381;0
5382;1
5383;2
5384;0
5385;4
5386;-3
5387;-3
5388;0
5389;-3
5390;0
5391;-5
5392;0
5393;-2
5394;0
5395;-5
5396;-11
5397;-2
5398;-2
5399;-4
5400;-9
5401;-1
5402;-7
5403;1
5404;7
5405;4
5406;1
5407;6
5408;-5
5409;-2
5410;-8
5411;-8
5412;-1
5413;1
5414;0
5415;9
5416;2
5417;4
5418;8
5419;10
5420;5
5421;8
5422;15
5423;12
5424;2
5425;5
5426;0
5427;1
5428;14
5429;18
5430;23
5431;22
5432;19
5433;13
5434;6
5435;-59
5436;-66
5437;-38
5438;2
5439;42
5440;50
5441;60
5442;42
5443;2
5444;23
5445;42
5446;59
5447;10
5448;-37
5449;-31
5450;-11
5451;-1
5452;-26
5453;-201
5454;-278
5455;-195
5456;-25
5457;121
5458;170
5459;122
5460;12
5461;-143
5462;-136
5463;-15
5464;148
5465;223
5466;227
5467;178
5468;107
5469;19
5470;-30
5471;-79
5472;-54
5473;22
5474;91
5475;122
5476;99
5477;-4
5478;-35
5479;-73
5480;-137
5481;-260
5482;-257
5483;-122
5484;39
5485;119
5486;45
5487;-151
5488;-246
5489;-125
5490;33
5491;60
5492;-33
5493;-58
5494;18
5495;89
5496;132
5497;129
5498;165
5499;113
5500;-98
5501;-133
5502;3
5503;26
5504;-65
5505;-143
5506;10
5507;150
5508;198
5509;-2
5510;-107
5511;-95
5512;-251
5513;-323
5514;-163
5515;105
5516;299
5517;408
5518;322
5519;153
5520;142
5521;148
5522;114
5523;69
5524;-36
5525;-196
5526;-215
5527;-147
5528;-143
5529;-135
5530;-115
5531;-111
5532;-90
5533;-99
5534;-194
5535;-145
5536;-20
5537;126
5538;149
5539;161
5540;177
5541;223
5542;158
5543;54
5544;19
5545;36
5546;-22
5547;-92
5548;74
5549;269
5550;312
5551;195
5552;38
5553;-230
5554;-402
5555;-302
5556;-86
5557;5
5558;5
5559;39
5560;174
5561;247
5562;220
5563;87
5564;-19
5565;-104
5566;-154
5567;-213
5568;-278
5569;-277
5570;-214
5571;-99
5572;18
5573;50
5574;62
5575;103
5576;36
5577;-60
5578;-84
5579;-155
5580;-354
5581;-328
5582;-7
5583;282
5584;313
5585;242
5586;137
5587;142
5588;178
5589;198
5590;213
5591;132
5592;96
5593;121
5594;125
5595;136
5596;94
5597;53
5598;-27
5599;-90
5600;-100
5601;-140
5602;-188
5603;-213
5604;-185
5605;-116
5606;-68
5607;-56
5608;-42
5609;-24
5610;-5
5611;13
5612;2
5613;-16
5614;-14
5615;-3
5616;31
5617;78
5618;125
5619;120
5620;103
5621;66
5622;37
5623;-12
5624;-34
5625;-42
5626;-47
5627;-84
5628;-206
5629;-164
5630;-77
5631;0
5632;75
5633;115
5634;112
5635;86
5636;58
5637;24
5638;-38
5639;-95
5640;-154
5641;-198
5642;-191
5643;-131
5644;-60
5645;-20
5646;77
5647;156
5648;183
5649;162
5650;132
5651;42
5652;42
5653;37
5654;31
5655;67
5656;73
5657;44
5658;15
5659;-17
5660;-28
5661;-36
5662;-23
5663;-30
5664;-42
5665;-31
5666;-9
5667;12
5668;17
5669;26
5670;17
5671;13
5672;-9
5673;-9
5674;-16
5675;-17
5676;-7
5677;-8
5678;-13
5679;-9
5680;-1
5681;-3
5682;-1
5683;1
5684;3
5685;4
5686;-2
5687;-8
5688;-11
5689;-10
5690;-6
5691;0
5692;-2
5693;0
5694;0
5695;0
5696;0
5697;0
5698;-1
5699;-9
5700;-8
5701;1
5702;-7
5703;-2
5704;4
5705;1
5706;3
5707;1
5708;-2
5709;-2
5710;-2
5711;-5
5712;-6
5713;2
5714;-5
5715;-1
5716;-9
5717;-2
5718;-9
5719;-11
5720;-20
5721;-22
5722;-14
5723;-6
5724;0
5725;-2
5726;0
5727;-5
5728;-6
5729;-8
5730;-8
5731;-8
5732;-7
5733;-2
5734;-9
5735;-1
5736;-6
5737;-3
5738;-2
5739;1
5740;0
5741;1
5742;-2
5743;-3
5744;-2
5745;2
5746;-1
5747;-5
5748;-7
5749;-3
5750;-9
5751;-5
5752;-3
5753;-9
5754;1
5755;-7
5756;2
5757;4
5758;-2
5759;-2
5760;0
5761;-2
5762;-1
5763;1
5764;0
5765;-1
5766;3
5767;0
5768;-4
5769;-5
5770;0
5771;2
5772;5
5773;2
5774;2
5775;0
5776;-4
5777;0
5778;2
5779;0
5780;-2
5781;-3
5782;-3
5783;0
5784;-4
5785;1
5786;2
5787;0
5788;2
5789;0
5790;-3
5791;-5
5792;-7
5793;-5
5794;0
5795;0
5796;7
5797;17
5798;5
5799;0
5800;2
5801;0
5802;-5
5803;-5
5804;0
5805;2
5806;4
5807;4
5808;2
5809;2
5810;0
5811;-6
5812;-4
5813;-1
5814;-1
5815;-1
5816;0
5817;-2
5818;-6
5819;-1
5820;0
5821;-2
5822;0
5823;1
5824;0
5825;-1
5826;2
5827;1
5828;0
5829;0
5830;0
5831;-5
5832;-3
5833;-8
5834;-5
5835;-5
5836;-10
5837;-10
5838;-6
5839;-7
5840;-2
5841;-5
5842;0
5843;1
5844;-1
5845;-5
5846;0
5847;-7
5848;-6
5849;-11
5850;-11
5851;-4
5852;-5
5853;-4
5854;0
5855;-13
5856;-13
5857;-10
5858;-2
5859;-1
5860;-7
5861;-2
5862;-10
5863;-9
5864;-5
5865;-6
5866;-10
5867;3
5868;-3
5869;-3
5870;1
5871;-2
5872;-6
5873;-3
5874;-12
5875;-13
5876;-10
5877;-14
5878;-7
5879;-12
5880;-9
5881;-12
5882;-2
5883;0
5884;0
5885;-1
5886;-2
5887;-3
5888;-6
5889;-4
5890;-1
5891;0
5892;3
5893;6
5894;-3
5895;-5
5896;0
5897;-3
5898;0
5899;-1
5900;2
5901;0
5902;0
5903;1
5904;2
5905;6
5906;-3
5907;-2
5908;0
5909;-7
5910;-6
5911;1
5912;-7
5913;-9
5914;-3
5915;-1
5916;1
5917;-4
5918;4
5919;1
5920;2
5921;1
5922;3
5923;2
5924;-3
5925;-2
5926;3
5927;5
5928;1
5929;3
5930;-4
5931;7
5932;4
5933;1
5934;3
5935;0
5936;-5
5937;0
5938;0
5939;3
5940;0
5941;0
5942;0
5943;-3
5944;-5
5945;-5
5946;-1
5947;-8
5948;0
5949;-4
5950;-1
5951;0
5952;0
5953;0
5954;0
5955;-3
5956;-1
5957;-1
5958;4
5959;8
5960;11
5961;6
5962;3
5963;6
5964;5
5965;3
5966;-2
5967;-5
5968;-5
5969;-7
5970;-1
5971;-4
5972;-5
5973;-3
5974;-4
5975;-5
5976;-2
5977;0
5978;-6
5979;0
5980;0
5981;-2
5982;8
5983;14
5984;16
5985;11
5986;0
5987;0
5988;-3
5989;-2
5990;-9
5991;-9
5992;-8
5993;-6
5994;2
5995;0
5996;3
5997;0
5998;0
5999;-6
6000;-2
6001;-3
6002;0
6003;1
6004;3
6005;-2
6006;-2
6007;4
6008;5
6009;2
6010;-3
6011;-7
6012;-3
6013;-5
6014;-8
6015;-7
6016;-4
6017;-4
6018;0
6019;0
6020;6
6021;4
6022;11
6023;10
6024;3
6025;1
6026;-1
6027;3
6028;2
6029;3
6030;2
6031;0
6032;5
6033;0
6034;7
6035;2
6036;0
6037;0
6038;-6
6039;-2
6040;0
6041;-1
6042;-3
6043;-1
6044;-2
6045;-2
6046;-15
6047;-6
6048;0
6049;0
6050;0
6051;3
6052;7
6053;1
6054;0
6055;2
6056;-3
6057;3
6058;9
6059;2
6060;1
6061;-1
6062;0
6063;0
6064;5
6065;0
6066;-1
6067;0
6068;-4
6069;0
6070;2
6071;-2
6072;0
6073;-2
6074;1
6075;2
6076;-2
6077;0
6078;-3
6079;-5
6080;-6
6081;-7
6082;3
6083;0
6084;0
6085;0
6086;0
6087;-2
6088;-4
6089;-2
6090;-2
6091;-6
6092;-7
6093;0
6094;-7
6095;-6
6096;0
6097;-6
6098;-8
6099;-2
6100;-3
6101;0
6102;-1
6103;2
6104;-3
6105;-5
6106;6
6107;1
6108;7
6109;-5
6110;-2
6111;4
6112;4
6113;9
6114;15
6115;15
6116;26
6117;18
6118;6
6119;6
6120;5
6121;4
6122;3
6123;0
6124;-11
6125;-53
6126;-50
6127;-25
6128;-7
6129;12
6130;32
6131;57
6132;73
6133;62
6134;19
6135;-27
6136;1
6137;66
6138;101
6139;75
6140;10
6141;-138
6142;-272
6143;-221
6144;-113
6145;57
6146;117
6147;39
6148;-3
6149;-111
6150;-186
6151;-128
6152;10
6153;126
6154;176
6155;190
6156;189
6157;155
6158;88
6159;-19
6160;-19
6161;62
6162;162
6163;202
6164;162
6165;79
6166;-6
6167;-62
6168;-140
6169;-250
6170;-264
6171;-184
6172;-142
6173;-242
6174;-227
6175;-121
6176;-110
6177;-88
6178;4
6179;179
6180;248
6181;298
6182;310
6183;212
6184;77
6185;-39
6186;-287
6187;-426
6188;-320
6189;-154
6190;-36
6191;78
6192;76
6193;111
6194;201
6195;225
6196;192
6197;244
6198;283
6199;256
6200;160
6201;23
6202;-122
6203;-124
6204;-51
6205;-133
6206;-143
6207;-73
6208;-41
6209;-186
6210;-290
6211;-133
6212;87
6213;209
6214;189
6215;118
6216;46
6217;-29
6218;-120
6219;-259
6220;-420
6221;-340
6222;-114
6223;49
6224;61
6225;96
6226;216
6227;313
6228;340
6229;297
6230;221
6231;140
6232;140
6233;121
6234;-11
6235;-171
6236;-210
6237;-180
6238;-179
6239;-233
6240;-268
6241;-158
6242;-74
6243;-26
6244;4
6245;-32
6246;-87
6247;59
6248;252
6249;366
6250;357
6251;332
6252;261
6253;100
6254;-177
6255;-210
6256;-78
6257;-2
6258;-30
6259;-66
6260;-72
6261;-102
6262;-99
6263;-114
6264;-104
6265;-115
6266;-246
6267;-258
6268;-161
6269;-51
6270;43
6271;78
6272;156
6273;243
6274;278
6275;180
6276;34
6277;-91
6278;-136
6279;-172
6280;-67
6281;97
6282;206
6283;229
6284;193
6285;108
6286;35
6287;-36
6288;-9
6289;2
6290;-38
6291;-21
6292;-44
6293;-67
6294;-211
6295;-206
6296;-58
6297;78
6298;153
6299;88
6300;7
6301;-12
6302;14
6303;33
6304;-40
6305;-201
6306;-151
6307;-50
6308;34
6309;94
6310;122
6311;135
6312;110
6313;-58
6314;-147
6315;-141
6316;-67
6317;8
6318;54
6319;32
6320;-5
6321;-23
6322;-7
6323;40
6324;71
6325;58
6326;64
6327;55
6328;31
6329;4
6330;15
6331;-21
6332;-108
6333;-110
6334;-44
6335;21
6336;49
6337;67
6338;58
6339;18
6340;-46
6341;-80
6342;-55
6343;14
6344;86
6345;84
6346;24
6347;-29
6348;-56
6349;-49
6350;-43
6351;-9
6352;14
6353;11
6354;14
6355;10
6356;1
6357;-2
6358;-10
6359;-12
6360;-12
6361;-5
6362;-2
6363;0
6364;2
6365;7
6366;6
6367;15
6368;6
6369;2
6370;0
6371;0
6372;2
6373;-6
6374;-3
6375;0
6376;3
6377;2
6378;0
6379;-8
6380;-4
6381;-1
6382;-8
6383;1
6384;-9
6385;0
6386;-7
6387;-6
6388;-2
6389;-1
6390;-5
6391;-7
6392;0
6393;3
6394;-5
6395;-6
6396;-11
6397;-7
6398;-3
6399;-8
6400;-19
6401;-15
6402;-8
6403;-4
6404;-5
6405;-2
6406;0
6407;-4
6408;-5
6409;-3
6410;-6
6411;-6
6412;-8
6413;-8
6414;-4
6415;-5
6416;-8
6417;-3
6418;-2
6419;-5
6420;-6
6421;-6
6422;-6
6423;-7
6424;1
6425;-5
6426;-13
6427;-8
6428;-9
6429;0
6430;-9
6431;-1
6432;-4
6433;-3
6434;-9
6435;0
6436;-6
6437;-7
6438;-1
6439;-2
6440;-10
6441;0
6442;0
6443;-2
6444;0
6445;-2
6446;-3
6447;-15
6448;-12
6449;-5
6450;0
6451;0
6452;9
6453;4
6454;6
6455;0
6456;0
6457;0
6458;-1
6459;-2
6460;-5
6461;0
6462;2
6463;2
6464;0
6465;-2
6466;0
6467;3
6468;1
6469;8
6470;9
6471;9
6472;0
6473;5
6474;0
6475;-3
6476;4
6477;1
6478;-4
6479;2
6480;3
6481;0
6482;0
6483;0
6484;0
6485;0
6486;6
6487;11
6488;6
6489;3
6490;3
6491;6
6492;3
6493;2
6494;-2
6495;-2
6496;-2
6497;-2
6498;0
6499;0
6500;0
6501;0
6502;-2
6503;-3
6504;-8
6505;0
6506;-10
6507;-7
6508;-4
6509;-6
6510;-7
6511;-7
6512;-10
6513;-1
6514;-2
6515;0
6516;3
6517;-6
6518;-7
6519;-13
6520;-15
6521;-16
6522;-20
6523;-10
6524;2
6525;4
6526;0
6527;-3
6528;-8
6529;-5
6530;-6
6531;-3
6532;-3
6533;-7
6534;-9
6535;-8
6536;-7
6537;-10
6538;0
6539;-2
6540;-1
6541;-8
6542;-9
6543;-10
6544;-12
6545;-3
6546;-6
6547;1
6548;-2
6549;-4
6550;-10
6551;-10
6552;-6
6553;-3
6554;-9
6555;-13
6556;-5
6557;0
6558;-8
6559;-6
6560;-3
6561;-4
6562;-3
6563;-4
6564;-7
6565;-9
6566;-2
6567;0
6568;-2
6569;-1
6570;-7
6571;-6
6572;-2
6573;0
6574;-5
6575;4
6576;0
6577;1
6578;1
6579;1
6580;0
6581;4
6582;1
6583;3
6584;0
6585;-2
6586;-9
6587;-1
6588;7
6589;0
6590;-1
6591;1
6592;-1
6593;-2
6594;2
6595;-5
6596;0
6597;7
6598;1
6599;0
6600;0
6601;3
6602;3
6603;0
6604;0
6605;8
6606;7
6607;14
6608;4
6609;5
6610;7
6611;-2
6612;0
6613;0
6614;-1
6615;-4
6616;3
6617;-3
6618;-1
6619;0
6620;-12
6621;-11
6622;-3
6623;-6
6624;-3
6625;0
6626;3
6627;0
6628;7
6629;7
6630;5
6631;11
6632;6
6633;8
6634;-2
6635;0
6636;-1
6637;1
6638;-2
6639;1
6640;0
6641;3
6642;0
6643;0
6644;3
6645;1
6646;7
6647;5
6648;0
6649;0
6650;-4
6651;-4
6652;0
6653;0
6654;6
6655;7
6656;2
6657;3
6658;8
6659;-4
6660;0
6661;-4
6662;-6
6663;-3
6664;1
6665;0
6666;0
6667;2
6668;-1
6669;1
6670;-2
6671;-3
6672;-2
6673;3
6674;-3
6675;2
6676;-2
6677;1
6678;7
6679;6
6680;1
6681;8
6682;6
6683;3
6684;10
6685;3
6686;2
6687;-5
6688;4
6689;-6
6690;-6
6691;-4
6692;-2
6693;1
6694;5
6695;0
6696;-4
6697;-6
6698;0
6699;0
6700;0
6701;-2
6702;1
6703;10
6704;4
6705;5
6706;0
6707;2
6708;0
6709;-1
6710;-1
6711;4
6712;0
6713;0
6714;-7
6715;-10
6716;-5
6717;-1
6718;1
6719;1
6720;0
6721;3
6722;3
6723;1
6724;0
6725;-1
6726;2
6727;0
6728;0
6729;-5
6730;2
6731;5
6732;9
6733;2
6734;3
6735;-1
6736;-2
6737;0
6738;-2
6739;1
6740;-3
6741;6
6742;-1
6743;-2
6744;-4
6745;-2
6746;0
6747;0
6748;-2
6749;2
6750;-5
6751;-3
6752;-2
6753;0
6754;7
6755;-2
6756;5
6757;1
6758;2
6759;0
6760;0
6761;2
6762;-3
6763;-4
6764;-3
6765;3
6766;1
6767;0
6768;3
6769;2
6770;3
6771;0
6772;1
6773;3
6774;-1
6775;0
6776;-3
6777;2
6778;-1
6779;5
6780;8
6781;3
6782;7
6783;11
6784;11
6785;8
6786;9
6787;2
6788;-2
6789;-8
6790;-1
6791;7
6792;0
6793;7
6794;10
6795;10
6796;-20
6797;-64
6798;-58
6799;-39
6800;10
6801;47
6802;59
6803;61
6804;79
6805;79
6806;67
6807;23
6808;8
6809;31
6810;35
6811;-10
6812;-102
6813;-197
6814;-146
6815;-35
6816;67
6817;55
6818;0
6819;-15
6820;-60
6821;-99
6822;-120
6823;-116
6824;-146
6825;-58
6826;68
6827;191
6828;214
6829;170
6830;116
6831;84
6832;58
6833;26
6834;64
6835;137
6836;133
6837;27
6838;-72
6839;-40
6840;65
6841;83
6842;-19
6843;-130
6844;-260
6845;-296
6846;-267
6847;-166
6848;-122
6849;-192
6850;-124
6851;156
6852;359
6853;364
6854;287
6855;207
6856;151
6857;54
6858;-128
6859;-309
6860;-308
6861;-234
6862;-76
6863;-13
6864;31
6865;60
6866;139
6867;-63
6868;-194
6869;-89
6870;196
6871;381
6872;387
6873;236
6874;-19
6875;-127
6876;-509
6877;-572
6878;-327
6879;-13
6880;204
6881;284
6882;245
6883;195
6884;149
6885;66
6886;35
6887;-57
6888;-94
6889;16
6890;170
6891;125
6892;-6
6893;-66
6894;-89
6895;-78
6896;-183
6897;-142
6898;-45
6899;92
6900;159
6901;147
6902;-4
6903;-60
6904;-25
6905;12
6906;92
6907;76
6908;29
6909;42
6910;0
6911;-231
6912;-189
6913;16
6914;139
6915;114
6916;47
6917;-86
6918;-184
6919;-268
6920;-152
6921;82
6922;166
6923;130
6924;116
6925;31
6926;-552
6927;-701
6928;-436
6929;-23
6930;285
6931;441
6932;449
6933;306
6934;145
6935;-47
6936;-91
6937;-99
6938;-22
6939;186
6940;380
6941;412
6942;300
6943;190
6944;139
6945;114
6946;123
6947;127
6948;-27
6949;-191
6950;-225
6951;-246
6952;-254
6953;-200
6954;-104
6955;21
6956;79
6957;40
6958;-88
6959;-134
6960;-135
6961;-108
6962;-17
6963;60
6964;74
6965;66
6966;50
6967;36
6968;36
6969;23
6970;20
6971;-18
6972;-47
6973;-77
6974;-45
6975;-19
6976;8
6977;31
6978;-2
6979;-142
6980;-175
6981;-141
6982;-62
6983;-12
6984;-2
6985;-134
6986;-226
6987;-146
6988;-54
6989;52
6990;132
6991;160
6992;112
6993;69
6994;34
6995;11
6996;39
6997;62
6998;91
6999;92
7000;68
7001;61
7002;51
7003;52
7004;32
7005;29
7006;36
7007;39
7008;-48
7009;-98
7010;-51
7011;5
7012;55
7013;58
7014;-44
7015;-117
7016;-71
7017;-4
7018;56
7019;99
7020;125
7021;99
7022;43
7023;16
7024;-40
7025;-53
7026;-55
7027;-43
7028;-26
7029;-24
7030;-28
7031;-6
7032;-11
7033;-6
7034;-1
7035;-7
7036;-10
7037;-16
7038;-9
7039;-24
7040;-17
7041;-15
7042;-3
7043;-1
7044;0
7045;1
7046;1
7047;5
7048;3
7049;0
7050;0
7051;-7
7052;-3
7053;0
7054;6
7055;-6
7056;-7
7057;-1
7058;-6
7059;-6
7060;-14
7061;-4
7062;0
7063;7
7064;6
7065;-5
7066;1
7067;0
7068;0
7069;-3
7070;0
7071;-9
7072;-4
7073;-3
7074;-6
7075;-7
7076;-2
7077;-8
7078;-3
7079;-3
7080;-4
7081;-4
7082;0
7083;0
7084;0
7085;-1
7086;-3
7087;-2
7088;-2
7089;-7
7090;-7
7091;-10
7092;-12
7093;-7
7094;-3
7095;-5
7096;-9
7097;-3
7098;-5
7099;-2
7100;5
7101;0
7102;-4
7103;-5
7104;0
7105;-1
7106;-4
7107;0
7108;0
7109;1
7110;-1
7111;1
7112;1
7113;-3
7114;0
7115;-4
7116;-2
7117;1
7118;-4
7119;-3
7120;-1
7121;-6
7122;-10
7123;-9
7124;-3
7125;-7
7126;0
7127;-5
7128;-3
7129;-1
7130;1
7131;-2
7132;0
7133;4
7134;-9
7135;-1
7136;-3
7137;0
7138;-9
7139;-2
7140;-5
7141;-7
7142;-4
7143;2
7144;0
7145;3
7146;1
7147;0
7148;-2
7149;0
7150;3
7151;3
7152;-2
7153;3
7154;0
7155;-5
7156;0
7157;1
7158;1
7159;3
7160;0
7161;-2
7162;0
7163;-3
7164;3
7165;2
7166;0
7167;-4
7168;0
7169;0
7170;0
7171;1
7172;0
7173;5
7174;0
7175;0
7176;-5
7177;-8
7178;-1
7179;1
7180;-3
7181;-6
7182;1
7183;3
7184;3
7185;-2
7186;0
7187;-7
7188;-2
7189;-2
7190;2
7191;-6
7192;-1
7193;-7
7194;-4
7195;-5
7196;-8
7197;-5
7198;-9
7199;-4
7200;1
7201;-11
7202;-3
7203;-11
7204;-3
7205;-9
7206;-7
7207;-9
7208;-8
7209;-1
7210;-1
7211;-5
7212;0
7213;-8
7214;-11
7215;-5
7216;-13
7217;-10
7218;-1
7219;-8
7220;-5
7221;-6
7222;-12
7223;-6
7224;-1
7225;-4
7226;-7
7227;-4
7228;-1
7229;-8
7230;-4
7231;-4
7232;-6
7233;-6
7234;2
7235;2
7236;6
7237;2
7238;3
7239;-1
7240;-3
7241;-5
7242;-2
7243;-6
7244;3
7245;2
7246;0
7247;-9
7248;-7
7249;0
7250;-1
7251;-3
7252;-1
7253;-1
7254;-6
7255;-5
7256;0
7257;-7
7258;-6
7259;-7
7260;-5
7261;-2
7262;0
7263;1
7264;-1
7265;0
7266;8
7267;1
7268;1
7269;6
7270;1
7271;-1
7272;0
7273;1
7274;-1
7275;-5
7276;-3
7277;-5
7278;1
7279;9
7280;0
7281;4
7282;0
7283;1
7284;7
7285;6
7286;0
7287;4
7288;-1
7289;4
7290;0
7291;0
7292;4
7293;2
7294;-3
7295;4
7296;5
7297;9
7298;5
7299;2
7300;3
7301;1
7302;2
7303;1
7304;3
7305;0
7306;0
7307;-2
7308;0
7309;-4
7310;0
7311;-1
7312;-1
7313;0
7314;1
7315;3
7316;7
7317;6
7318;12
7319;10
7320;3
7321;1
7322;5
7323;0
7324;-2
7325;0
7326;-1
7327;-2
7328;-7
7329;1
7330;1
7331;-2
7332;-2
7333;-1
7334;2
7335;0
7336;-2
7337;-4
7338;-1
7339;-2
7340;-7
7341;0
7342;8
7343;6
7344;8
7345;9
7346;6
7347;6
7348;6
7349;4
7350;4
7351;4
7352;1
7353;-1
7354;-4
7355;-4
7356;0
7357;-6
7358;2
7359;4
7360;2
7361;2
7362;0
7363;0
7364;-6
7365;-10
7366;-10
7367;-13
7368;-2
7369;3
7370;4
7371;0
7372;5
7373;1
7374;1
7375;1
7376;3
7377;-5
7378;-1
7379;0
7380;-7
7381;-13
7382;5
7383;5
7384;8
7385;-4
7386;0
7387;-1
7388;-2
7389;-5
7390;0
7391;0
7392;-5
7393;-5
7394;-2
7395;-7
7396;2
7397;-5
7398;-5
7399;0
7400;5
7401;0
7402;3
7403;0
7404;2
7405;0
7406;-1
7407;-3
7408;0
7409;0
7410;0
7411;0
7412;0
7413;1
7414;-4
7415;3
7416;4
7417;1
7418;4
7419;7
7420;1
7421;2
7422;-5
7423;-4
7424;-4
7425;0
7426;0
7427;0
7428;0
7429;3
7430;0
7431;5
7432;3
7433;-4
7434;2
7435;-1
7436;0
7437;-3
7438;1
7439;1
7440;-5
7441;-7
7442;-10
7443;-1
7444;0
7445;1
7446;4
7447;0
7448;4
7449;0
7450;5
7451;6
7452;5
7453;2
7454;0
7455;0
7456;6
7457;2
7458;-4
7459;-13
7460;-14
7461;-7
7462;-3
7463;0
7464;6
7465;8
7466;16
7467;11
7468;16
7469;-23
7470;-51
7471;-33
7472;-14
7473;26
7474;20
7475;13
7476;27
7477;48
7478;65
7479;81
7480;70
7481;37
7482;0
7483;14
7484;14
7485;-54
7486;-174
7487;-215
7488;-59
7489;123
7490;228
7491;189
7492;-54
7493;-168
7494;-212
7495;-162
7496;-115
7497;-99
7498;-41
7499;19
7500;44
7501;61
7502;58
7503;107
7504;152
7505;151
7506;136
7507;118
7508;133
7509;146
7510;76
7511;64
7512;46
7513;29
7514;-100
7515;-287
7516;-331
7517;-295
7518;-166
7519;-36
7520;-54
7521;-37
7522;-16
7523;63
7524;187
7525;253
7526;174
7527;51
7528;38
7529;-129
7530;-107
7531;-11
7532;43
7533;81
7534;-108
7535;-202
7536;-105
7537;17
7538;83
7539;60
7540;55
7541;59
7542;44
7543;110
7544;117
7545;6
7546;-55
7547;45
7548;25
7549;-300
7550;-358
7551;-145
7552;33
7553;67
7554;151
7555;243
7556;297
7557;300
7558;90
7559;-32
7560;-50
7561;-71
7562;-118
7563;-125
7564;-152
7565;-248
7566;-283
7567;-126
7568;-4
7569;44
7570;97
7571;158
7572;152
7573;184
7574;258
7575;253
7576;170
7577;-116
7578;-154
7579;-43
7580;99
7581;176
7582;185
7583;150
7584;60
7585;-130
7586;-223
7587;-228
7588;-159
7589;-326
7590;-464
7591;-252
7592;68
7593;274
7594;300
7595;268
7596;90
7597;-581
7598;-705
7599;-259
7600;118
7601;316
7602;273
7603;-37
7604;-264
7605;-108
7606;243
7607;457
7608;546
7609;562
7610;399
7611;222
7612;49
7613;-63
7614;-40
7615;-25
7616;-37
7617;-77
7618;-115
7619;-118
7620;-121
7621;-186
7622;-236
7623;-201
7624;-99
7625;-31
7626;-39
7627;-93
7628;-69
7629;-49
7630;-128
7631;-70
7632;-71
7633;-100
7634;75
7635;259
7636;312
7637;237
7638;100
7639;-22
7640;-74
7641;-41
7642;9
7643;0
7644;-75
7645;-75
7646;-61
7647;-47
7648;-107
7649;-83
7650;-8
7651;30
7652;70
7653;3
7654;-130
7655;-312
7656;-226
7657;-45
7658;132
7659;193
7660;123
7661;-39
7662;-67
7663;73
7664;232
7665;215
7666;28
7667;-113
7668;-36
7669;123
7670;236
7671;226
7672;158
7673;-17
7674;-144
7675;-178
7676;-136
7677;-57
7678;-28
7679;-16
7680;6
7681;57
7682;114
7683;134
7684;133
7685;100
7686;69
7687;40
7688;-7
7689;-47
7690;-64
7691;-18
7692;14
7693;18
7694;6
7695;-34
7696;-71
7697;-104
7698;-124
7699;-126
7700;-101
7701;-68
7702;-22
7703;12
7704;24
7705;29
7706;31
7707;28
7708;34
7709;32
7710;-14
7711;-36
7712;-71
7713;-109
7714;-115
7715;-102
7716;-92
7717;-59
7718;-10
7719;0
7720;3
7721;47
7722;73
7723;84
7724;106
7725;109
7726;110
7727;105
7728;88
7729;56
7730;33
7731;11
7732;0
7733;-10
7734;0
7735;0
7736;4
7737;-5
7738;-10
7739;-16
7740;-19
7741;-18
7742;-22
7743;-23
7744;-10
7745;-17
7746;-17
7747;-15
7748;-9
7749;-13
7750;-3
7751;-11
7752;-7
7753;-6
7754;-3
7755;0
7756;-3
7757;-2
7758;-1
7759;-10
7760;-7
7761;-14
7762;-9
7763;-7
7764;-7
7765;-1
7766;0
7767;-5
7768;1
7769;-3
7770;-6
7771;-5
7772;-5
7773;0
7774;0
7775;-7
7776;-6
7777;-7
7778;-9
7779;-6
7780;-5
7781;-4
7782;-5
7783;-1
7784;0
7785;0
7786;-1
7787;4
7788;-1
7789;-11
7790;-2
7791;-4
7792;-11
7793;-9
7794;-5
7795;3
7796;3
7797;0
7798;3
7799;0
7800;0
7801;3
7802;0
7803;-5
7804;-6
7805;0
7806;-6
7807;-3
7808;-5
7809;-5
7810;-2
7811;-4
7812;0
7813;-3
7814;-4
7815;-1
7816;0
7817;0
7818;0
7819;0
7820;-2
7821;0
7822;0
7823;-2
7824;-2
7825;-3
7826;0
7827;1
7828;-4
7829;-4
7830;-3
7831;0
7832;0
7833;-3
7834;0
7835;-4
7836;-3
7837;0
7838;1
7839;-2
7840;-3
7841;0
7842;0
7843;1
7844;-1
7845;-2
7846;-8
7847;-3
7848;0
7849;-6
7850;-6
7851;0
7852;0
7853;0
7854;0
7855;0
7856;-2
7857;0
7858;0
7859;6
7860;-6
7861;-9
7862;-5
7863;-6
7864;0
7865;0
7866;-11
7867;-4
7868;0
7869;-2
7870;0
7871;-1
7872;0
7873;2
7874;-1
7875;-2
7876;1
7877;-1
7878;-5
7879;-2
7880;-7
7881;-13
7882;-13
7883;-6
7884;-4
7885;-9
7886;-9
7887;-9
7888;-7
7889;-9
7890;-7
7891;-11
7892;-9
7893;-7
7894;-8
7895;-11
7896;-2
7897;-1
7898;0
7899;-1
7900;-7
7901;-3
7902;-3
7903;-8
7904;-12
7905;0
7906;-5
7907;-11
7908;-6
7909;-9
7910;-7
7911;-9
7912;-4
7913;-14
7914;-11
7915;-4
7916;-6
7917;-4
7918;-3
7919;-8
7920;-7
7921;0
7922;-5
7923;-3
7924;-4
7925;0
7926;-6
7927;-1
7928;0
7929;2
7930;-6
7931;0
7932;-2
7933;0
7934;3
7935;0
7936;0
7937;-3
7938;-3
7939;-2
7940;-3
7941;1
7942;-5
7943;-2
7944;3
7945;-3
7946;5
7947;5
7948;1
7949;2
7950;8
7951;0
7952;2
7953;-4
7954;0
7955;3
7956;0
7957;6
7958;2
7959;1
7960;-2
7961;0
7962;-4
7963;-1
7964;0
7965;1
7966;2
7967;1
7968;4
7969;7
7970;3
7971;3
7972;0
7973;3
7974;5
7975;2
7976;0
7977;0
7978;-4
7979;-1
7980;8
7981;7
7982;9
7983;3
7984;3
7985;0
7986;5
7987;-2
7988;4
7989;-2
7990;0
7991;1
7992;-2
7993;-5
7994;-1
7995;-1
7996;-2
7997;4
7998;7
7999;0
8000;0
8001;0
8002;6
8003;5
8004;0
8005;-3
8006;0
8007;0
8008;0
8009;4
8010;3
8011;7
8012;0
8013;7
8014;-2
8015;-2
8016;-2
8017;-4
8018;-3
8019;-2
8020;2
8021;0
8022;1
8023;3
8024;0
8025;0
8026;6
8027;1
8028;0
8029;-1
8030;-3
8031;0
8032;0
8033;-1
8034;-1
8035;1
8036;0
8037;-2
8038;0
8039;0
8040;0
8041;-4
8042;-6
8043;-2
8044;-6
8045;-1
8046;7
8047;0
8048;0
8049;2
8050;-2
8051;6
8052;3
8053;0
8054;0
8055;0
8056;-6
8057;-5
8058;-5
8059;-3
8060;-4
8061;-15
8062;-3
8063;-10
8064;-12
8065;-8
8066;-4
8067;-4
8068;1
8069;4
8070;1
8071;2
8072;1
8073;0
8074;-1
8075;-2
8076;-3
8077;0
8078;1
8079;0
8080;0
8081;-2
8082;-2
8083;-3
8084;-6
8085;-9
8086;-4
8087;-2
8088;0
8089;-6
8090;0
8091;0
8092;3
8093;4
8094;-4
8095;-5
8096;3
8097;-3
8098;-2
8099;-5
8100;-3
8101;0
8102;1
8103;0
8104;-3
8105;0
8106;0
8107;0
8108;0
8109;-1
8110;-2
8111;-2
8112;0
8113;2
8114;1
8115;1
8116;-5
8117;-1
8118;0
8119;-2
8120;1
8121;2
8122;3
8123;0
8124;-1
8125;4
8126;-1
8127;0
8128;-3
8129;-1
8130;2
8131;7
8132;0
8133;-2
8134;-2
8135;0
8136;6
8137;2
8138;0
8139;4
8140;5
8141;0
8142;0
8143;-4
8144;1
8145;-1
8146;-1
8147;0
8148;0
8149;6
8150;17
8151;-28
8152;-55
8153;-30
8154;-4
8155;18
8156;37
8157;46
8158;49
8159;54
8160;50
8161;44
8162;36
8163;5
8164;-33
8165;-33
8166;13
8167;13
8168;-73
8169;-49
8170;30
8171;88
8172;93
8173;-13
8174;-291
8175;-262
8176;-89
8177;98
8178;183
8179;180
8180;148
8181;88
8182;68
8183;118
8184;114
8185;24
8186;-141
8187;-192
8188;-122
8189;-4
8190;48
8191;76
8192;15
8193;-31
8194;-35
8195;-66
8196;-182
8197;-291
8198;-209
8199;0
8200;177
8201;122
8202;-82
8203;-92
8204;101
8205;235
8206;284
8207;242
8208;158
8209;117
8210;84
8211;34
8212;-139
8213;-178
8214;-271
8215;-236
8216;-56
8217;39
8218;-54
8219;-247
8220;-160
8221;75
8222;213
8223;177
8224;-58
8225;-147
8226;-137
8227;-70
8228;-62
8229;-282
8230;-214
8231;33
8232;323
8233;287
8234;48
8235;-65
8236;138
8237;331
8238;367
8239;232
8240;51
8241;-19
8242;-31
8243;-60
8244;-140
8245;-204
8246;-133
8247;32
8248;156
8249;171
8250;41
8251;-73
8252;-8
8253;85
8254;76
8255;55
8256;-38
8257;-140
8258;-178
8259;-136
8260;-148
8261;-105
8262;-115
8263;-53
8264;73
8265;23
8266;-37
8267;-263
8268;-354
8269;-77
8270;167
8271;303
8272;347
8273;313
8274;207
8275;75
8276;-20
8277;-31
8278;-93
8279;-200
8280;-166
8281;-214
8282;-201
8283;-260
8284;-231
8285;-49
8286;245
8287;473
8288;554
8289;428
8290;207
8291;77
8292;32
8293;-51
8294;-213
8295;-245
8296;-165
8297;10
8298;122
8299;129
8300;130
8301;113
8302;72
8303;-55
8304;-108
8305;-138
8306;-133
8307;-72
8308;-57
8309;-135
8310;-197
8311;-219
8312;-247
8313;-270
8314;-84
8315;103
8316;173
8317;90
8318;-39
8319;-43
8320;73
8321;211
8322;310
8323;291
8324;164
8325;70
8326;18
8327;41
8328;38
8329;-363
8330;-471
8331;-366
8332;-233
8333;37
8334;241
8335;259
8336;194
8337;169
8338;143
8339;70
8340;-4
8341;12
8342;32
8343;34
8344;-46
8345;-149
8346;-133
8347;-58
8348;10
8349;35
8350;61
8351;97
8352;112
8353;123
8354;152
8355;188
8356;196
8357;120
8358;22
8359;-28
8360;-28
8361;-60
8362;-81
8363;-128
8364;-184
8365;-174
8366;-155
8367;-142
8368;-107
8369;-42
8370;-24
8371;-2
8372;22
8373;27
8374;-1
8375;-61
8376;-141
8377;-179
8378;-124
8379;-32
8380;49
8381;136
8382;200
8383;162
8384;126
8385;117
8386;93
8387;41
8388;13
8389;-13
8390;-15
8391;-23
8392;-21
8393;-29
8394;-23
8395;1
8396;-1
8397;-9
8398;-15
8399;-50
8400;-86
8401;-95
8402;-95
8403;-73
8404;-27
8405;30
8406;60
8407;70
8408;80
8409;78
8410;66
8411;46
8412;16
8413;0
8414;-3
8415;-10
8416;-1
8417;9
8418;4
8419;-3
8420;-7
8421;0
8422;5
8423;0
8424;-5
8425;-5
8426;-9
8427;-4
8428;-13
8429;-9
8430;-4
8431;5
8432;-1
8433;3
8434;-6
8435;-2
8436;0
8437;0
8438;-7
8439;-10
8440;-4
8441;0
8442;1
8443;2
8444;0
8445;3
8446;0
8447;-4
8448;-12
8449;-16
8450;-7
8451;-11
8452;-8
8453;0
8454;0
8455;3
8456;-1
8457;-6
8458;-3
8459;-12
8460;-9
8461;0
8462;0
8463;-2
8464;0
8465;-1
8466;0
8467;-11
8468;0
8469;-8
8470;-6
8471;0
8472;-1
8473;0
8474;-5
8475;-7
8476;-4
8477;0
8478;-6
8479;0
8480;0
8481;0
8482;-10
8483;-13
8484;-6
8485;-4
8486;-2
8487;-5
8488;2
8489;-3
8490;-3
8491;-5
8492;-7
8493;-5
8494;-6
8495;0
8496;7
8497;0
8498;4
8499;0
8500;-2
8501;-4
8502;-1
8503;-2
8504;-3
8505;0
8506;-7
8507;-4
8508;0
8509;0
8510;-3
8511;-4
8512;-2
8513;-3
8514;-6
8515;-7
8516;-3
8517;-5
8518;5
8519;7
8520;0
8521;-6
8522;-4
8523;-4
8524;-1
8525;-5
8526;-6
8527;-3
8528;-5
8529;-1
8530;1
8531;3
8532;-8
8533;-4
8534;1
8535;-1
8536;-1
8537;3
8538;0
8539;6
8540;-7
8541;0
8542;-5
8543;-1
8544;-5
8545;-8
8546;-2
8547;-1
8548;-4
8549;-7
8550;-6
8551;-3
8552;-9
8553;-7
8554;-8
8555;-5
8556;-4
8557;-12
8558;-5
8559;-8
8560;-7
8561;-3
8562;-3
8563;-5
8564;-2
8565;-9
8566;-3
8567;-2
8568;-5
8569;-17
8570;-10
8571;-3
8572;-2
8573;-5
8574;-5
8575;-7
8576;-9
8577;-13
8578;-14
8579;-12
8580;-13
8581;-10
8582;-9
8583;-11
8584;-5
8585;-4
8586;-4
8587;0
8588;-1
8589;-3
8590;-9
8591;-5
8592;-12
8593;-13
8594;-10
8595;-4
8596;-5
8597;-5
8598;-5
8599;0
8600;-6
8601;-3
8602;0
8603;0
8604;3
8605;-2
8606;0
8607;-7
8608;-2
8609;-11
8610;-2
8611;-5
8612;1
8613;-5
8614;-2
8615;2
8616;1
8617;2
8618;0
8619;-3
8620;3
8621;0
8622;0
8623;2
8624;1
8625;-3
8626;-3
8627;-5
8628;-4
8629;3
8630;0
8631;-1
8632;3
8633;2
8634;0
8635;0
8636;0
8637;3
8638;-8
8639;2
8640;0
8641;0
8642;0
8643;4
8644;0
8645;3
8646;3
8647;7
8648;-4
8649;2
8650;7
8651;8
8652;0
8653;4
8654;4
8655;0
8656;2
8657;0
8658;9
8659;4
8660;1
8661;1
8662;-2
8663;1
8664;-2
8665;-2
8666;-3
8667;-2
8668;-4
8669;-6
8670;0
8671;4
8672;7
8673;7
8674;1
8675;2
8676;3
8677;0
8678;0
8679;2
8680;0
8681;9
8682;2
8683;10
8684;6
8685;0
8686;-2
8687;-2
8688;-5
8689;-10
8690;-6
8691;-1
8692;-7
8693;0
8694;6
8695;2
8696;4
8697;7
8698;5
8699;-4
8700;-4
8701;6
8702;-3
8703;-7
8704;-3
8705;1
8706;-4
8707;0
8708;0
8709;-2
8710;-2
8711;3
8712;3
8713;3
8714;5
8715;0
8716;4
8717;6
8718;0
8719;3
8720;1
8721;2
8722;6
8723;0
8724;-6
8725;0
8726;-2
8727;-3
8728;-3
8729;-3
8730;-3
8731;-3
8732;-1
8733;-8
8734;-3
8735;0
8736;-1
8737;0
8738;1
8739;3
8740;0
8741;-1
8742;-6
8743;-4
8744;-11
8745;-16
8746;-13
8747;-5
8748;0
8749;-1
8750;-8
8751;-8
8752;-2
8753;-1
8754;-1
8755;-1
8756;4
8757;0
8758;4
8759;0
8760;-1
8761;0
8762;0
8763;-2
8764;0
8765;-2
8766;-9
8767;-10
8768;-6
8769;-4
8770;-2
8771;0
8772;0
8773;1
8774;2
8775;1
8776;6
8777;7
8778;-3
8779;-2
8780;2
8781;0
8782;-3
8783;0
8784;0
8785;0
8786;-6
8787;-1
8788;2
8789;1
8790;2
8791;1
8792;0
8793;4
8794;-2
8795;6
8796;0
8797;0
8798;5
8799;0
8800;1
8801;-2
8802;0
8803;5
8804;1
8805;4
8806;0
8807;0
8808;-2
8809;0
8810;0
8811;0
8812;-3
8813;0
8814;6
8815;1
8816;6
8817;6
8818;0
8819;0
8820;-3
8821;-1
8822;2
8823;0
8824;-4
8825;-1
8826;3
8827;11
8828;21
8829;26
8830;20
8831;18
8832;10
8833;-3
8834;-2
8835;-1
8836;-4
8837;-59
8838;-63
8839;-22
8840;37
8841;72
8842;81
8843;76
8844;65
8845;57
8846;79
8847;92
8848;85
8849;37
8850;-40
8851;-110
8852;-209
8853;-289
8854;-203
8855;-83
8856;-14
8857;12
8858;34
8859;-19
8860;-118
8861;-57
8862;25
8863;136
8864;187
8865;216
8866;204
8867;161
8868;109
8869;18
8870;16
8871;32
8872;13
8873;0
8874;-63
8875;-83
8876;-74
8877;-128
8878;-108
8879;13
8880;74
8881;49
8882;-21
8883;-63
8884;-76
8885;-92
8886;-46
8887;-24
8888;-49
8889;-41
8890;81
8891;189
8892;245
8893;54
8894;-77
8895;-67
8896;-14
8897;-3
8898;-116
8899;-120
8900;-32
8901;71
8902;88
8903;-305
8904;-432
8905;-202
8906;185
8907;285
8908;136
8909;10
8910;74
8911;147
8912;136
8913;-76
8914;-108
8915;-9
8916;151
8917;278
8918;183
8919;80
8920;-25
8921;-78
8922;-85
8923;-61
8924;-52
8925;-105
8926;-91
8927;-135
8928;-243
8929;-318
8930;-343
8931;-194
8932;65
8933;70
8934;159
8935;301
8936;442
8937;480
8938;443
8939;338
8940;208
8941;43
8942;-19
8943;-102
8944;-235
8945;-544
8946;-648
8947;-666
8948;-616
8949;-231
8950;186
8951;394
8952;469
8953;416
8954;255
8955;112
8956;-14
8957;-109
8958;-49
8959;268
8960;549
8961;670
8962;278
8963;-137
8964;-406
8965;-389
8966;-399
8967;-376
8968;-246
8969;-65
8970;-26
8971;-23
8972;18
8973;-32
8974;36
8975;189
8976;302
8977;234
8978;137
8979;126
8980;-5
8981;-48
8982;12
8983;128
8984;234
8985;267
8986;204
8987;73
8988;-23
8989;-166
8990;-300
8991;-358
8992;-330
8993;-257
8994;-139
8995;-86
8996;-59
8997;-87
8998;-61
8999;0
9000;44
9001;40
9002;-43
9003;-99
9004;-152
9005;-146
9006;-106
9007;46
9008;214
9009;209
9010;149
9011;99
9012;-47
9013;-153
9014;8
9015;253
9016;391
9017;335
9018;181
9019;45
9020;-37
9021;-98
9022;-186
9023;-301
9024;-325
9025;-253
9026;-152
9027;73
9028;204
9029;145
9030;41
9031;22
9032;50
9033;57
9034;4
9035;-22
9036;-29
9037;-6
9038;-2
9039;22
9040;41
9041;59
9042;120
9043;161
9044;177
9045;152
9046;117
9047;53
9048;-55
9049;-133
9050;-179
9051;-179
9052;-149
9053;-117
9054;-58
9055;-13
9056;25
9057;22
9058;4
9059;-9
9060;8
9061;38
9062;64
9063;58
9064;50
9065;88
9066;66
9067;35
9068;20
9069;9
9070;2
9071;-18
9072;-12
9073;-30
9074;-47
9075;-61
9076;-31
9077;-18
9078;4
9079;-31
9080;-51
9081;-72
9082;-55
9083;-19
9084;10
9085;15
9086;-2
9087;-25
9088;-23
9089;-3
9090;8
9091;7
9092;7
9093;0
9094;0
9095;0
9096;-2
9097;0
9098;-1
9099;2
9100;3
9101;6
9102;9
9103;1
9104;-4
9105;1
9106;8
9107;6
9108;-2
9109;-3
9110;-5
9111;0
9112;-4
9113;4
9114;10
9115;7
9116;7
9117;10
9118;-1
9119;1
9120;2
9121;0
9122;-7
9123;-14
9124;-2
9125;-6
9126;-3
9127;0
9128;-4
9129;2
9130;2
9131;-1
9132;-2
9133;-2
9134;5
9135;1
9136;-2
9137;0
9138;-1
9139;-2
9140;0
9141;0
9142;-5
9143;-9
9144;-6
9145;-6
9146;-8
9147;-2
9148;-10
9149;-2
9150;-4
9151;-2
9152;-3
9153;-1
9154;-3
9155;-4
9156;-4
9157;3
9158;1
9159;0
9160;-8
9161;-1
9162;-2
9163;5
9164;-3
9165;0
9166;-5
9167;-1
9168;0
9169;-4
9170;-10
9171;-7
9172;-9
9173;-4
9174;-1
9175;-2
9176;-3
9177;3
9178;0
9179;-3
9180;-1
9181;-3
9182;0
9183;4
9184;-4
9185;-10
9186;0
9187;1
9188;2
9189;0
9190;1
9191;0
9192;4
9193;1
9194;-3
9195;-6
9196;0
9197;-2
9198;-9
9199;-8
9200;-7
9201;-2
9202;-3
9203;0
9204;0
9205;0
9206;-3
9207;-1
9208;0
9209;0
9210;6
9211;5
9212;6
9213;8
9214;0
9215;2
9216;0
9217;-5
9218;-3
9219;-8
9220;-4
9221;-8
9222;-6
9223;-1
9224;-7
9225;-7
9226;-6
9227;-5
9228;-6
9229;-1
9230;-7
9231;-3
9232;-7
9233;-8
9234;1
9235;-5
9236;-4
9237;1
9238;-2
9239;-2
9240;0
9241;-2
9242;-7
9243;1
9244;-5
9245;1
9246;-9
9247;-4
9248;-7
9249;-9
9250;-5
9251;-2
9252;-11
9253;-10
9254;-11
9255;-12
9256;-8
9257;-9
9258;-12
9259;-12
9260;-12
9261;-7
9262;0
9263;1
9264;-6
9265;-5
9266;-2
9267;-13
9268;-4
9269;-10
9270;-3
9271;-3
9272;-7
9273;-3
9274;-6
9275;-8
9276;-5
9277;0
9278;0
9279;0
9280;0
9281;-3
9282;3
9283;-3
9284;0
9285;0
9286;-1
9287;-7
9288;0
9289;-2
9290;-3
9291;-5
9292;-1
9293;-5
9294;0
9295;-6
9296;-2
9297;0
9298;0
9299;-6
9300;-9
9301;1
9302;0
9303;-3
9304;2
9305;1
9306;-1
9307;3
9308;-7
9309;-2
9310;-5
9311;4
9312;3
9313;-2
9314;-1
9315;0
9316;0
9317;-2
9318;-2
9319;4
9320;-1
9321;5
9322;0
9323;3
9324;3
9325;0
9326;5
9327;4
9328;1
9329;2
9330;2
9331;9
9332;2
9333;2
9334;2
9335;-1
9336;6
9337;-1
9338;0
9339;-3
9340;-2
9341;-9
9342;-4
9343;7
9344;-2
9345;5
9346;1
9347;1
9348;5
9349;4
9350;5
9351;3
9352;4
9353;3
9354;2
9355;0
9356;0
9357;5
9358;6
9359;-4
9360;1
9361;-1
9362;-1
9363;-1
9364;-5
9365;-4
9366;-1
9367;0
9368;0
9369;-3
9370;2
9371;3
9372;5
9373;0
9374;0
9375;4
9376;-5
9377;0
9378;0
9379;0
9380;4
9381;7
9382;0
9383;-1
9384;-1
9385;-7
9386;-1
9387;-2
9388;0
9389;4
9390;2
9391;13
9392;0
9393;2
9394;2
9395;-2
9396;0
9397;1
9398;-4
9399;-6
9400;-8
9401;-2
9402;4
9403;-1
9404;-6
9405;-10
9406;-8
9407;0
9408;-2
9409;6
9410;3
9411;11
9412;11
9413;6
9414;5
9415;6
9416;-2
9417;-2
9418;-3
9419;-4
9420;-1
9421;0
9422;3
9423;0
9424;-2
9425;-5
9426;-7
9427;-7
9428;-8
9429;-8
9430;-3
9431;-8
9432;-6
9433;-7
9434;-1
9435;-3
9436;4
9437;0
9438;0
9439;3
9440;1
9441;7
9442;7
9443;0
9444;0
9445;0
9446;-4
9447;-4
9448;-4
9449;-4
9450;-12
9451;-13
9452;-2
9453;0
9454;8
9455;5
9456;5
9457;11
9458;3
9459;3
9460;6
9461;-1
9462;6
9463;2
9464;-4
9465;3
9466;-5
9467;2
9468;-6
9469;4
9470;-6
9471;2
9472;-1
9473;-1
9474;7
9475;3
9476;0
9477;0
9478;0
9479;-6
9480;0
9481;4
9482;0
9483;3
9484;-3
9485;0
9486;-1
9487;0
9488;0
9489;1
9490;0
9491;1
9492;4
9493;-1
9494;-3
9495;0
9496;-1
9497;0
9498;-1
9499;0
9500;4
9501;0
9502;0
9503;4
9504;0
9505;-4
9506;8
9507;3
9508;9
9509;2
9510;3
9511;0
9512;8
9513;2
9514;3
9515;8
9516;16
9517;16
9518;5
9519;-43
9520;-56
9521;-41
9522;-33
9523;0
9524;17
9525;32
9526;41
9527;44
9528;-2
9529;-12
9530;35
9531;71
9532;89
9533;56
9534;5
9535;-8
9536;-7
9537;0
9538;-12
9539;-13
9540;-11
9541;-10
9542;-12
9543;-31
9544;-74
9545;-109
9546;-119
9547;-168
9548;-141
9549;-63
9550;-31
9551;-11
9552;-52
9553;-62
9554;-11
9555;149
9556;329
9557;419
9558;394
9559;292
9560;143
9561;0
9562;-107
9563;-127
9564;-104
9565;-46
9566;-90
9567;-114
9568;-146
9569;-184
9570;-189
9571;-125
9572;-40
9573;50
9574;88
9575;115
9576;148
9577;148
9578;52
9579;0
9580;-160
9581;-390
9582;-262
9583;-11
9584;64
9585;146
9586;286
9587;233
9588;99
9589;174
9590;274
9591;235
9592;112
9593;-29
9594;-139
9595;-156
9596;-133
9597;-258
9598;-361
9599;-464
9600;-377
9601;-67
9602;254
9603;368
9604;121
9605;-276
9606;-264
9607;-40
9608;148
9609;191
9610;9
9611;-10
9612;135
9613;232
9614;232
9615;66
9616;-56
9617;-144
9618;-107
9619;-62
9620;-7
9621;-7
9622;15
9623;91
9624;187
9625;145
9626;145
9627;57
9628;-160
9629;-73
9630;139
9631;217
9632;90
9633;-53
9634;-119
9635;-73
9636;34
9637;190
9638;88
9639;-430
9640;-519
9641;-213
9642;63
9643;122
9644;108
9645;38
9646;-99
9647;-152
9648;-113
9649;-3
9650;47
9651;128
9652;219
9653;243
9654;134
9655;-170
9656;-159
9657;35
9658;188
9659;292
9660;316
9661;163
9662;-4
9663;-127
9664;-241
9665;-185
9666;-52
9667;69
9668;56
9669;-81
9670;-71
9671;-32
9672;28
9673;118
9674;274
9675;328
9676;274
9677;165
9678;10
9679;-142
9680;-204
9681;-196
9682;-167
9683;-238
9684;-347
9685;-292
9686;-149
9687;-8
9688;81
9689;75
9690;56
9691;55
9692;33
9693;-88
9694;-124
9695;-65
9696;0
9697;40
9698;21
9699;8
9700;45
9701;12
9702;-43
9703;20
9704;113
9705;186
9706;144
9707;114
9708;27
9709;-104
9710;-187
9711;-172
9712;-119
9713;-49
9714;-31
9715;-79
9716;-44
9717;17
9718;64
9719;143
9720;118
9721;-41
9722;-72
9723;-148
9724;-33
9725;124
9726;210
9727;224
9728;173
9729;107
9730;75
9731;75
9732;75
9733;46
9734;38
9735;7
9736;-2
9737;-23
9738;-30
9739;-49
9740;-95
9741;-72
9742;-43
9743;-45
9744;-16
9745;4
9746;20
9747;31
9748;35
9749;15
9750;-5
9751;-28
9752;-112
9753;-167
9754;-141
9755;-47
9756;11
9757;48
9758;75
9759;92
9760;73
9761;56
9762;14
9763;-8
9764;-12
9765;-6
9766;-8
9767;-6
9768;3
9769;2
9770;4
9771;-2
9772;-1
9773;-10
9774;-9
9775;-3
9776;1
9777;9
9778;11
9779;12
9780;8
9781;0
9782;-7
9783;-4
9784;-5
9785;-2
9786;0
9787;-6
9788;-2
9789;-5
9790;-7
9791;-8
9792;0
9793;-1
9794;-5
9795;-12
9796;-9
9797;0
9798;-1
9799;-7
9800;-8
9801;-4
9802;-7
9803;-2
9804;-8
9805;-9
9806;-2
9807;2
9808;-8
9809;-13
9810;-4
9811;-11
9812;-5
9813;-5
9814;-10
9815;-5
9816;0
9817;4
9818;5
9819;-4
9820;-7
9821;-7
9822;-5
9823;-3
9824;0
9825;-1
9826;-2
9827;-5
9828;-8
9829;-3
9830;0
9831;-1
9832;0
9833;-1
9834;0
9835;-2
9836;-1
9837;-7
9838;-3
9839;-4
9840;-4
9841;-8
9842;-5
9843;-2
9844;-3
9845;-4
9846;0
9847;-3
9848;-1
9849;0
9850;0
9851;0
9852;-7
9853;0
9854;-1
9855;0
9856;-4
9857;0
9858;-6
9859;-3
9860;-11
9861;-7
9862;-9
9863;0
9864;-1
9865;0
9866;-1
9867;-8
9868;-7
9869;-4
9870;1
9871;4
9872;1
9873;6
9874;4
9875;8
9876;2
9877;-9
9878;2
9879;1
9880;-2
9881;0
9882;-2
9883;-10
9884;-1
9885;1
9886;1
9887;1
9888;3
9889;-2
9890;3
9891;0
9892;-6
9893;-6
9894;0
9895;-4
9896;4
9897;1
9898;5
9899;1
9900;3
9901;-2
9902;0
9903;3
9904;1
9905;2
9906;-2
9907;-5
9908;-6
9909;-5
9910;-8
9911;-3
9912;-7
9913;-3
9914;1
9915;0
9916;0
9917;1
9918;-3
9919;0
9920;-2
9921;-1
9922;5
9923;3
9924;0
9925;-3
9926;-2
9927;-13
9928;-11
9929;-2
9930;-9
9931;-5
9932;-9
9933;-8
9934;-10
9935;-3
9936;0
9937;-3
9938;-4
9939;2
9940;-2
9941;0
9942;-2
9943;-11
9944;-2
9945;-4
9946;-9
9947;-2
9948;-11
9949;-5
9950;-7
9951;-3
9952;-12
9953;-14
9954;-12
9955;-4
9956;-7
9957;0
9958;-4
9959;-10
9960;-8
9961;-5
9962;2
9963;0
9964;2
9965;-1
9966;5
9967;-4
9968;-2
9969;-4
9970;-3
9971;0
9972;-3
9973;-5
9974;-8
9975;-6
9976;-1
9977;-2
9978;-1
9979;-3
9980;-5
9981;-7
9982;-5
9983;-7
9984;0
9985;-5
9986;-1
9987;0
9988;-8
9989;-3
9990;1
9991;-1
9992;7
9993;0
9994;0
9995;0
9996;-3
9997;2
9998;-2
9999;4
10000;-1
10001;4
10002;2
10003;4
10004;4
10005;0
10006;-1
10007;8
10008;0
10009;-2
10010;7
10011;-1
10012;0
10013;-1
10014;0
10015;0
10016;1
10017;6
10018;9
10019;8
10020;8
10021;11
10022;10
10023;10
10024;0
10025;0
10026;-4
10027;0
10028;5
10029;-4
10030;-11
10031;-6
10032;-7
10033;-2
10034;-2
10035;-1
10036;-5
10037;1
10038;-4
10039;4
10040;0
10041;-5
10042;3
10043;0
10044;2
10045;7
10046;6
10047;1
10048;0
10049;-3
10050;3
10051;0
10052;-1
10053;-2
10054;0
10055;0
10056;0
10057;0
10058;-1
10059;-2
10060;2
10061;8
10062;5
10063;0
10064;-8
10065;-2
10066;0
10067;0
10068;-6
10069;-8
10070;0
10071;0
10072;-4
10073;0
10074;0
10075;-2
10076;-4
10077;1
10078;1
10079;1
10080;2
10081;3
10082;12
10083;15
10084;6
10085;0
10086;0
10087;1
10088;-1
10089;-3
10090;-1
10091;0
10092;9
10093;4
10094;1
10095;1
10096;-1
10097;-6
10098;0
10099;1
10100;5
10101;0
10102;3
10103;0
10104;1
10105;-2
10106;-7
10107;-11
10108;-11
10109;-5
10110;6
10111;11
10112;12
10113;2
10114;5
10115;-5
10116;-2
10117;-8
10118;-14
10119;-11
10120;-7
10121;0
10122;4
10123;0
10124;0
10125;1
10126;-2
10127;-4
10128;-10
10129;0
10130;-1
10131;0
10132;7
10133;13
10134;19
10135;6
10136;2
10137;1
10138;-1
10139;-2
10140;0
10141;0
10142;-3
10143;0
10144;0
10145;-1
10146;0
10147;2
10148;3
10149;0
10150;-1
10151;-3
10152;-3
10153;-2
10154;-6
10155;1
10156;0
10157;0
10158;3
10159;1
10160;3
10161;-3
10162;-9
10163;-1
10164;3
10165;0
10166;-1
10167;-1
10168;-4
10169;5
10170;-3
10171;-3
10172;-2
10173;-5
10174;-3
10175;-7
10176;2
10177;0
10178;-7
10179;1
10180;0
10181;4
10182;0
10183;-2
10184;0
10185;3
10186;2
10187;1
10188;1
10189;1
10190;-3
10191;0
10192;-1
10193;-4
10194;0
10195;2
10196;0
10197;-3
10198;-7
10199;-9
10200;-4
10201;3
10202;10
10203;12
10204;19
10205;24
10206;31
10207;22
10208;13
10209;14
10210;-34
10211;-90
10212;-86
10213;-62
10214;-24
10215;22
10216;42
10217;67
10218;60
10219;33
10220;8
10221;35
10222;20
10223;-26
10224;-100
10225;-97
10226;-27
10227;49
10228;117
10229;105
10230;9
10231;-78
10232;-69
10233;-34
10234;14
10235;-6
10236;-49
10237;-28
10238;-51
10239;40
10240;39
10241;38
10242;48
10243;64
10244;-14
10245;-26
10246;33
10247;101
10248;122
10249;49
10250;-49
10251;-110
10252;-61
10253;-16
10254;-93
10255;-222
10256;-155
10257;46
10258;205
10259;194
10260;95
10261;16
10262;40
10263;126
10264;207
10265;148
10266;37
10267;-80
10268;-90
10269;-45
10270;-33
10271;-74
10272;-146
10273;-220
10274;-343
10275;-331
10276;-255
10277;-293
10278;-178
10279;-213
10280;-95
10281;208
10282;382
10283;469
10284;494
10285;400
10286;273
10287;123
10288;-17
10289;-106
10290;-123
10291;-55
10292;-56
10293;-166
10294;-237
10295;-221
10296;-78
10297;105
10298;228
10299;217
10300;173
10301;102
10302;-99
10303;-149
10304;-161
10305;-181
10306;-183
10307;-52
10308;157
10309;216
10310;224
10311;219
10312;174
10313;115
10314;79
10315;33
10316;-24
10317;-81
10318;-252
10319;-586
10320;-534
10321;-170
10322;182
10323;169
10324;42
10325;12
10326;144
10327;275
10328;298
10329;246
10330;157
10331;35
10332;-50
10333;-213
10334;-251
10335;-143
10336;10
10337;-114
10338;-248
10339;-127
10340;67
10341;103
10342;150
10343;169
10344;181
10345;75
10346;62
10347;72
10348;40
10349;-52
10350;-82
10351;-106
10352;-128
10353;-103
10354;-39
10355;51
10356;171
10357;297
10358;306
10359;191
10360;62
10361;-79
10362;-142
10363;-128
10364;-66
10365;-29
10366;-37
10367;-110
10368;-219
10369;-372
10370;-631
10371;-759
10372;-474
10373;-74
10374;287
10375;510
10376;608
10377;531
10378;405
10379;278
10380;171
10381;76
10382;13
10383;17
10384;22
10385;-16
10386;-13
10387;4
10388;-55
10389;-144
10390;-125
10391;-64
10392;-40
10393;-131
10394;-232
10395;-200
10396;-102
10397;-125
10398;-190
10399;-100
10400;9
10401;60
10402;15
10403;109
10404;223
10405;331
10406;283
10407;136
10408;51
10409;24
10410;46
10411;23
10412;-20
10413;-63
10414;-113
10415;-262
10416;-311
10417;-147
10418;72
10419;204
10420;211
10421;136
10422;36
10423;-59
10424;-78
10425;-69
10426;-11
10427;32
10428;61
10429;74
10430;105
10431;82
10432;40
10433;0
10434;-34
10435;-40
10436;-38
10437;-25
10438;-24
10439;-67
10440;-83
10441;-47
10442;-4
10443;18
10444;41
10445;31
10446;19
10447;9
10448;0
10449;2
10450;10
10451;-3
10452;-13
10453;-5
10454;-6
10455;-9
10456;-2
10457;-2
10458;-10
10459;-2
10460;-5
10461;-5
10462;-3
10463;-4
10464;0
10465;0
10466;4
10467;0
10468;2
10469;-6
10470;-9
10471;-11
10472;-10
10473;0
10474;0
10475;-1
10476;0
10477;-3
10478;0
10479;-2
10480;-6
10481;-1
10482;-1
10483;-6
10484;-2
10485;-2
10486;-4
10487;1
10488;-2
10489;-2
10490;-9
10491;-7
10492;-9
10493;-10
10494;-7
10495;-8
10496;-6
10497;-9
10498;-14
10499;-10
10500;-9
10501;-4
10502;-1
10503;-2
10504;-8
10505;0
10506;0
10507;1
10508;-2
10509;-3
10510;0
10511;0
10512;-3
10513;-5
10514;-5
10515;-2
10516;-3
10517;-5
10518;-8
10519;-4
10520;-6
10521;-9
10522;0
10523;2
10524;0
10525;-1
10526;-2
10527;0
10528;-2
10529;-5
10530;-1
10531;-11
10532;-6
10533;-6
10534;-3
10535;-4
10536;-5
10537;-2
10538;0
10539;8
10540;6
10541;5
10542;1
10543;3
10544;1
10545;-6
10546;-2
10547;-1
10548;-6
10549;0
10550;6
10551;0
10552;3
10553;0
10554;4
10555;-2
10556;-1
10557;-2
10558;-9
10559;-1
10560;0
10561;3
10562;1
10563;0
10564;0
10565;-1
10566;-3
10567;1
10568;-2
10569;3
10570;7
10571;3
10572;0
10573;2
10574;-1
10575;-4
10576;-3
10577;0
10578;-1
10579;-5
10580;0
10581;1
10582;-5
10583;0
10584;0
10585;0
10586;4
10587;5
10588;3
10589;6
10590;6
10591;5
10592;3
10593;0
10594;4
10595;0
10596;0
10597;-1
10598;0
10599;-3
10600;-4
10601;-7
10602;-10
10603;-5
10604;-1
10605;-1
10606;-13
10607;-9
10608;-5
10609;-11
10610;-9
10611;-8
10612;-7
10613;-6
10614;-8
10615;-5
10616;-9
10617;-6
10618;0
10619;-4
10620;0
10621;-1
10622;-5
10623;-11
10624;-10
10625;-7
10626;-8
10627;-16
10628;-16
10629;-12
10630;-11
10631;-16
10632;-16
10633;-6
10634;-13
10635;-5
10636;-1
10637;-4
10638;2
10639;-5
10640;0
10641;-5
10642;-3
10643;4
10644;0
10645;-4
10646;-4
10647;-8
10648;-4
10649;-9
10650;-11
10651;-9
10652;-3
10653;-5
10654;-10
10655;-2
10656;-12
10657;-6
10658;-2
10659;-7
10660;-4
10661;-3
10662;-5
10663;-3
10664;-4
10665;-1
10666;-5
10667;0
10668;-2
10669;3
10670;0
10671;6
10672;0
10673;4
10674;9
10675;5
10676;0
10677;-2
10678;-1
10679;0
10680;1
10681;-1
10682;0
10683;1
10684;2
10685;2
10686;5
10687;-3
10688;0
10689;-6
10690;-7
10691;4
10692;5
10693;8
10694;11
10695;10
10696;4
10697;3
10698;0
10699;-2
10700;-1
10701;-10
10702;-3
10703;-1
10704;0
10705;1
10706;4
10707;-1
10708;-2
10709;0
10710;2
10711;3
10712;3
10713;5
10714;0
10715;10
10716;2
10717;4
10718;4
10719;0
10720;1
10721;0
10722;-8
10723;2
10724;0
10725;-10
10726;-7
10727;0
10728;1
10729;0
10730;-1
10731;0
10732;0
10733;6
10734;2
10735;-5
10736;5
10737;0
10738;2
10739;5
10740;3
10741;5
10742;8
10743;7
10744;3
10745;3
10746;0
10747;0
10748;0
10749;1
10750;-10
10751;4
10752;-4
10753;-1
10754;-7
10755;2
10756;1
10757;0
10758;1
10759;0
10760;0
10761;-3
10762;-3
10763;1
10764;5
10765;8
10766;5
10767;7
10768;6
10769;8
10770;3
10771;4
10772;6
10773;-2
10774;0
10775;-7
10776;-8
10777;-9
10778;-10
10779;-10
10780;-4
10781;-2
10782;0
10783;0
10784;8
10785;9
10786;8
10787;0
10788;4
10789;5
10790;-4
10791;1
10792;-4
10793;-7
10794;-13
10795;-13
10796;-10
10797;-13
10798;-3
10799;-3
10800;3
10801;8
10802;12
10803;5
10804;4
10805;10
10806;0
10807;0
10808;-12
10809;-11
10810;-8
10811;-8
10812;0
10813;6
10814;3
10815;5
10816;-6
10817;1
10818;2
10819;-4
10820;4
10821;3
10822;4
10823;9
10824;4
10825;5
10826;-1
10827;-2
10828;1
10829;-8
10830;-5
10831;-4
10832;1
10833;4
10834;5
10835;1
10836;-1
10837;3
10838;0
10839;10
10840;1
10841;0
10842;0
10843;-5
10844;-13
10845;-11
10846;0
10847;1
10848;7
10849;11
10850;3
10851;0
10852;0
10853;-2
10854;0
10855;0
10856;-2
10857;1
10858;2
10859;3
10860;0
10861;1
10862;0
10863;0
10864;-4
10865;-8
10866;-3
10867;0
10868;2
10869;4
10870;-3
10871;1
10872;0
10873;4
10874;0
10875;0
10876;0
10877;-1
10878;-1
10879;1
10880;0
10881;8
10882;18
10883;18
10884;1
10885;-36
10886;-41
10887;-28
10888;-8
10889;17
10890;36
10891;42
10892;46
10893;35
10894;35
10895;20
10896;4
10897;-9
10898;-6
10899;-11
10900;-44
10901;-27
10902;-24
10903;-14
10904;-33
10905;-64
10906;-101
10907;-121
10908;-53
10909;53
10910;122
10911;152
10912;-17
10913;-270
10914;-250
10915;-62
10916;147
10917;248
10918;257
10919;198
10920;149
10921;121
10922;109
10923;73
10924;23
10925;34
10926;32
10927;-14
10928;-30
10929;-21
10930;-34
10931;-62
10932;-59
10933;-8
10934;33
10935;-56
10936;-295
10937;-394
10938;-347
10939;-245
10940;-218
10941;-12
10942;124
10943;118
10944;174
10945;277
10946;387
10947;382
10948;248
10949;73
10950;-162
10951;-359
10952;-337
10953;-327
10954;-285
10955;-126
10956;-114
10957;-12
10958;178
10959;351
10960;301
10961;80
10962;29
10963;129
10964;209
10965;264
10966;51
10967;-165
10968;-364
10969;-376
10970;-155
10971;68
10972;145
10973;74
10974;74
10975;122
10976;62
10977;53
10978;34
10979;-121
10980;-159
10981;-78
10982;-36
10983;-35
10984;-30
10985;-12
10986;-60
10987;-167
10988;-239
10989;-63
10990;218
10991;368
10992;275
10993;180
10994;136
10995;118
10996;102
10997;16
10998;5
10999;94
11000;143
11001;69
11002;-186
11003;-332
11004;-183
11005;-5
11006;128
11007;133
11008;66
11009;-65
11010;-87
11011;-144
11012;-186
11013;-137
11014;-51
11015;-64
11016;-104
11017;-74
11018;5
11019;30
11020;-53
11021;-23
11022;67
11023;136
11024;-65
11025;-192
11026;-145
11027;97
11028;281
11029;290
11030;205
11031;143
11032;110
11033;175
11034;190
11035;82
11036;-133
11037;-485
11038;-504
11039;-362
11040;-196
11041;47
11042;317
11043;428
11044;400
11045;298
11046;201
11047;138
11048;80
11049;-14
11050;-173
11051;-209
11052;-200
11053;-180
11054;-137
11055;-122
11056;-118
11057;-183
11058;-370
11059;-518
11060;-352
11061;-43
11062;243
11063;401
11064;433
11065;344
11066;230
11067;112
11068;1
11069;-119
11070;-170
11071;-115
11072;-49
11073;-64
11074;-55
11075;7
11076;66
11077;109
11078;97
11079;55
11080;43
11081;34
11082;29
11083;19
11084;9
11085;10
11086;-47
11087;-83
11088;-76
11089;-14
11090;48
11091;80
11092;81
11093;25
11094;-77
11095;-143
11096;-172
11097;-173
11098;-89
11099;-33
11100;-36
11101;31
11102;121
11103;177
11104;201
11105;195
11106;128
11107;-10
11108;-37
11109;0
11110;69
11111;69
11112;5
11113;-42
11114;-45
11115;-38
11116;-27
11117;-18
11118;-15
11119;-17
11120;-16
11121;-17
11122;-20
11123;-3
11124;8
11125;7
11126;4
11127;11
11128;20
11129;2
11130;-22
11131;-31
11132;-24
11133;-14
11134;-2
11135;6
11136;7
11137;12
11138;25
11139;13
11140;1
11141;-3
11142;-7
11143;0
11144;-5
11145;-7
11146;-5
11147;-3
11148;1
11149;-1
11150;-3
11151;-21
11152;-26
11153;-20
11154;-4
11155;-8
11156;3
11157;2
11158;-7
11159;0
11160;-4
11161;0
11162;5
11163;-2
11164;1
11165;-5
11166;-11
11167;-12
11168;-7
11169;0
11170;1
11171;-4
11172;-1
11173;-3
11174;0
11175;-2
11176;-2
11177;-10
11178;-4
11179;-3
11180;-5
11181;-7
11182;-9
11183;-6
11184;-7
11185;-11
11186;0
11187;-7
11188;-4
11189;-10
11190;-10
11191;-6
11192;-4
11193;-4
11194;-6
11195;-1
11196;1
11197;0
11198;-2
11199;0
11200;-1
11201;4
11202;0
11203;-4
11204;-8
11205;-8
11206;-5
11207;-4
11208;-4
11209;-3
11210;-3
11211;-6
11212;-1
11213;-4
11214;2
11215;1
11216;4
11217;2
11218;-2
11219;0
11220;0
11221;-2
11222;-1
11223;0
11224;-2
11225;1
11226;1
11227;1
11228;0
11229;2
11230;0
11231;0
11232;-2
11233;-2
11234;-7
11235;-6
11236;-5
11237;-6
11238;-8
11239;-10
11240;-7
11241;-10
11242;-2
11243;-2
11244;0
11245;1
11246;3
11247;5
11248;0
11249;0
11250;3
11251;4
11252;-2
11253;5
11254;0
11255;2
11256;5
11257;0
11258;0
11259;-1
11260;0
11261;4
11262;0
11263;1
11264;0
11265;6
11266;0
11267;0
11268;2
11269;-1
11270;1
11271;-6
11272;-2
11273;-9
11274;-2
11275;-5
11276;-7
11277;2
11278;-4
11279;0
11280;-6
11281;0
11282;-2
11283;0
11284;-6
11285;-3
11286;1
11287;-6
11288;-8
11289;-3
11290;-6
11291;0
11292;-8
11293;-2
11294;-4
11295;-3
11296;-13
11297;-7
11298;-4
11299;-13
11300;-17
11301;-8
11302;-15
11303;-6
11304;-9
11305;-11
11306;-7
11307;-1
11308;-7
11309;-10
11310;-11
11311;-2
11312;-7
11313;-1
11314;0
11315;0
11316;6
11317;-3
11318;-5
11319;-5
11320;-6
11321;-3
11322;-2
11323;-6
11324;-3
11325;-6
11326;-4
11327;-5
11328;-7
11329;-1
11330;0
11331;0
11332;-4
11333;-4
11334;0
11335;-3
11336;-8
11337;-3
11338;-1
11339;-6
11340;-4
11341;3
11342;-6
11343;-2
11344;-1
11345;-2
11346;-2
11347;-13
11348;-9
11349;-7
11350;-4
11351;-11
11352;-9
11353;0
11354;3
11355;-4
11356;1
11357;3
11358;8
11359;4
11360;4
11361;9
11362;0
11363;1
11364;-3
11365;0
11366;1
11367;1
11368;4
11369;0
11370;2
11371;-1
11372;-2
11373;0
11374;-4
11375;1
11376;-1
11377;-8
11378;0
11379;-6
11380;6
11381;10
11382;6
11383;1
11384;0
11385;0
11386;0
11387;7
11388;5
11389;7
11390;2
11391;-3
11392;2
11393;3
11394;0
11395;4
11396;6
11397;-3
11398;-9
11399;-12
11400;-8
11401;-7
11402;0
11403;0
11404;0
11405;2
11406;0
11407;0
11408;8
11409;0
11410;7
11411;0
11412;4
11413;0
11414;0
11415;-3
11416;1
11417;-7
11418;-5
11419;-9
11420;-5
11421;1
11422;0
11423;2
11424;-2
11425;0
11426;0
11427;1
11428;-3
11429;-2
11430;3
11431;5
11432;9
11433;6
11434;7
11435;0
11436;0
11437;6
11438;1
11439;0
11440;7
11441;0
11442;-3
11443;4
11444;0
11445;3
11446;0
11447;-1
11448;0
11449;-5
11450;3
11451;2
11452;-2
11453;-6
11454;2
11455;4
11456;2
11457;4
11458;3
11459;6
11460;7
11461;-1
11462;8
11463;1
11464;1
11465;0
11466;0
11467;-4
11468;-5
11469;0
11470;1
11471;0
11472;0
11473;0
11474;0
11475;-1
11476;3
11477;-3
11478;8
11479;0
11480;6
11481;8
11482;9
11483;7
11484;7
11485;1
11486;4
11487;6
11488;0
11489;0
11490;6
11491;-5
11492;-5
11493;0
11494;-8
11495;-5
11496;-10
11497;-11
11498;0
11499;0
11500;0
11501;0
11502;-2
11503;0
11504;-6
11505;-5
11506;-1
11507;-3
11508;-6
11509;4
11510;1
11511;6
11512;7
11513;8
11514;-1
11515;-2
11516;1
11517;-1
11518;-1
11519;9
11520;-3
11521;2
11522;-2
11523;2
11524;-2
11525;0
11526;1
11527;0
11528;4
11529;-7
11530;-3
11531;-5
11532;-8
11533;-2
11534;4
11535;0
11536;-2
11537;0
11538;-3
11539;0
11540;0
11541;0
11542;1
11543;-3
11544;1
11545;-1
11546;-2
11547;-2
11548;0
11549;0
11550;0
11551;-6
11552;-2
11553;-3
11554;2
11555;-2
11556;-2
11557;-10
11558;-2
11559;0
11560;0
11561;-1
11562;2
11563;1
11564;6
11565;-3
11566;-9
11567;-3
11568;0
11569;0
11570;11
11571;17
11572;21
11573;1
11574;-37
11575;-61
11576;-49
11577;-17
11578;3
11579;26
11580;31
11581;12
11582;11
11583;32
11584;62
11585;63
11586;-44
11587;-91
11588;-58
11589;-2
11590;78
11591;108
11592;124
11593;103
11594;70
11595;47
11596;-3
11597;-37
11598;-82
11599;-312
11600;-404
11601;-268
11602;-76
11603;128
11604;185
11605;153
11606;90
11607;46
11608;-25
11609;-39
11610;-4
11611;72
11612;100
11613;128
11614;225
11615;297
11616;295
11617;210
11618;10
11619;-132
11620;-132
11621;-96
11622;-87
11623;-241
11624;-268
11625;-191
11626;-96
11627;-58
11628;-172
11629;-314
11630;-252
11631;22
11632;254
11633;408
11634;378
11635;260
11636;135
11637;45
11638;-32
11639;-197
11640;-238
11641;-69
11642;50
11643;47
11644;37
11645;-3
11646;-106
11647;-160
11648;-233
11649;-171
11650;-91
11651;-50
11652;31
11653;69
11654;52
11655;-45
11656;25
11657;201
11658;364
11659;380
11660;323
11661;206
11662;71
11663;-58
11664;-64
11665;-140
11666;-312
11667;-431
11668;-235
11669;-22
11670;57
11671;-35
11672;-51
11673;8
11674;95
11675;166
11676;113
11677;-9
11678;-92
11679;-236
11680;-310
11681;-197
11682;74
11683;254
11684;301
11685;183
11686;87
11687;12
11688;-49
11689;30
11690;114
11691;132
11692;-24
11693;-171
11694;-133
11695;7
11696;64
11697;134
11698;152
11699;-5
11700;25
11701;140
11702;146
11703;95
11704;16
11705;-24
11706;-81
11707;-117
11708;-73
11709;-4
11710;24
11711;10
11712;-7
11713;-69
11714;-148
11715;-138
11716;-138
11717;-168
11718;-233
11719;-95
11720;77
11721;123
11722;-36
11723;-76
11724;-31
11725;-33
11726;-122
11727;-124
11728;-63
11729;43
11730;161
11731;234
11732;128
11733;-172
11734;-215
11735;-15
11736;186
11737;302
11738;341
11739;244
11740;152
11741;74
11742;42
11743;29
11744;27
11745;47
11746;51
11747;-51
11748;-137
11749;-165
11750;-135
11751;-96
11752;-132
11753;-97
11754;-24
11755;46
11756;109
11757;156
11758;162
11759;157
11760;131
11761;94
11762;41
11763;-2
11764;-75
11765;-113
11766;-131
11767;-121
11768;-79
11769;-63
11770;-52
11771;-58
11772;-55
11773;-40
11774;-43
11775;-61
11776;-61
11777;-43
11778;-22
11779;-1
11780;12
11781;14
11782;8
11783;15
11784;21
11785;25
11786;23
11787;25
11788;28
11789;27
11790;20
11791;8
11792;-12
11793;-17
11794;-4
11795;7
11796;-10
11797;-22
11798;-14
11799;19
11800;28
11801;21
11802;24
11803;27
11804;14
11805;-40
11806;-57
11807;-54
11808;-56
11809;-17
11810;15
11811;48
11812;76
11813;84
11814;73
11815;62
11816;42
11817;35
11818;21
11819;-2
11820;-11
11821;-11
11822;-10
11823;-6
11824;-12
11825;-18
11826;-22
11827;-12
11828;-7
11829;-4
11830;-11
11831;-9
11832;-2
11833;-6
11834;-10
11835;-13
11836;-5
11837;-3
11838;-16
11839;-7
11840;-7
11841;-9
11842;-17
11843;-12
11844;-10
11845;-11
11846;4
11847;-1
11848;-4
11849;3
11850;-5
11851;0
11852;0
11853;0
11854;-5
11855;-12
11856;-6
11857;-3
11858;0
11859;-5
11860;-10
11861;-7
11862;-11
11863;-12
11864;-5
11865;-6
11866;0
11867;5
11868;1
11869;-2
11870;-5
11871;-6
11872;0
11873;-6
11874;-6
11875;-2
11876;-3
11877;0
11878;-3
11879;4
11880;6
11881;-2
11882;-9
11883;0
11884;-3
11885;-4
11886;-6
11887;2
11888;-5
11889;-2
11890;-10
11891;-1
11892;-1
11893;-7
11894;-9
11895;-7
11896;-4
11897;8
11898;4
11899;4
11900;3
11901;-5
11902;-2
11903;-9
11904;-2
11905;-6
11906;-5
11907;-5
11908;-3
11909;3
11910;12
11911;2
11912;2
11913;-6
11914;5
11915;6
11916;-3
11917;3
11918;5
11919;4
11920;5
11921;0
11922;-2
11923;0
11924;3
11925;4
11926;0
11927;0
11928;-6
11929;-2
11930;0
11931;0
11932;7
11933;0
11934;-3
11935;0
11936;0
11937;-1
11938;1
11939;0
11940;-4
11941;-3
11942;-4
11943;-3
11944;-10
11945;0
11946;-5
11947;5
11948;-5
11949;1
11950;3
11951;-3
11952;-3
11953;-2
11954;0
11955;0
11956;-3
11957;0
11958;-4
11959;0
11960;-2
11961;0
11962;-3
11963;-4
11964;-7
11965;-13
11966;-5
11967;-1
11968;-5
11969;-7
11970;-5
11971;-2
11972;-9
11973;-10
11974;-5
11975;-3
11976;-2
11977;-5
11978;-2
11979;-1
11980;-5
11981;-2
11982;-8
11983;-7
11984;-13
11985;-12
11986;-11
11987;-18
11988;-8
11989;-7
11990;-9
11991;-6
11992;-1
11993;0
11994;-1
11995;2
11996;-3
11997;0
11998;-10
11999;-7
12000;-5
12001;-2
12002;-7
12003;-9
12004;-6
12005;-11
12006;-10
12007;-8
12008;-1
12009;-7
12010;-9
12011;-3
12012;-7
12013;-3
12014;-6
12015;0
12016;-5
12017;-1
12018;-1
12019;-1
12020;-6
12021;-8
12022;-5
12023;-2
12024;-1
12025;-7
12026;4
12027;3
12028;3
12029;1
12030;0
12031;-4
12032;2
12033;-3
12034;5
12035;7
12036;5
12037;5
12038;3
12039;1
12040;-1
12041;0
12042;6
12043;-2
12044;0
12045;0
12046;-1
12047;3
12048;5
12049;5
12050;10
12051;6
12052;2
12053;3
12054;3
12055;-1
12056;-5
12057;-7
12058;-8
12059;-1
12060;-3
12061;7
12062;-2
12063;0
12064;3
12065;-2
12066;-5
12067;-5
12068;-4
12069;0
12070;10
12071;5
12072;3
12073;0
12074;-4
12075;-7
12076;0
12077;0
12078;0
12079;0
12080;-2
12081;-6
12082;-5
12083;-2
12084;-3
12085;-1
12086;-7
12087;-4
12088;0
12089;-2
12090;2
12091;4
12092;2
12093;6
12094;0
12095;4
12096;0
12097;-3
12098;-1
12099;-2
12100;10
12101;0
12102;0
12103;-1
12104;-4
12105;-10
12106;-15
12107;-8
12108;-11
12109;1
12110;0
12111;0
12112;-1
12113;-3
12114;3
12115;-5
12116;0
12117;1
12118;-4
12119;2
12120;-4
12121;1
12122;0
12123;1
12124;7
12125;3
12126;3
12127;10
12128;6
12129;8
12130;5
12131;0
12132;-5
12133;-3
12134;-2
12135;-5
12136;2
12137;3
12138;0
12139;2
12140;0
12141;-1
12142;0
12143;0
12144;0
12145;-3
12146;0
12147;0
12148;2
12149;0
12150;9
12151;13
12152;12
12153;11
12154;4
12155;2
12156;-4
12157;-7
12158;0
12159;-7
12160;0
12161;-2
12162;-4
12163;-1
12164;-9
12165;-7
12166;-5
12167;-8
12168;0
12169;2
12170;0
12171;5
12172;-1
12173;3
12174;0
12175;7
12176;-1
12177;0
12178;0
12179;1
12180;0
12181;-3
12182;9
12183;8
12184;1
12185;6
12186;4
12187;-1
12188;5
12189;0
12190;2
12191;3
12192;2
12193;4
12194;0
12195;7
12196;2
12197;-1
12198;3
12199;-5
12200;-7
12201;-7
12202;-7
12203;-6
12204;-3
12205;-6
12206;-3
12207;-5
12208;1
12209;4
12210;7
12211;5
12212;4
12213;0
12214;-5
12215;-6
12216;-7
12217;-10
12218;-7
12219;0
12220;4
12221;6
12222;3
12223;6
12224;8
12225;4
12226;4
12227;0
12228;-1
12229;-14
12230;-9
12231;-10
12232;-2
12233;-3
12234;-5
12235;-9
12236;-7
12237;-3
12238;1
12239;14
12240;15
12241;30
12242;28
12243;21
12244;5
12245;-4
12246;-5
12247;-11
12248;-51
12249;-45
12250;-23
12251;-6
12252;2
12253;18
12254;36
12255;52
12256;43
12257;16
12258;-66
12259;-81
12260;-37
12261;14
12262;61
12263;101
12264;41
12265;-16
12266;-1
12267;26
12268;12
12269;-69
12270;-101
12271;-112
12272;-116
12273;-131
12274;-74
12275;7
12276;148
12277;173
12278;88
12279;59
12280;111
12281;145
12282;137
12283;114
12284;83
12285;25
12286;-74
12287;-84
12288;-28
12289;33
12290;53
12291;7
12292;-142
12293;-340
12294;-492
12295;-400
12296;-108
12297;104
12298;156
12299;62
12300;-69
12301;-77
12302;-2
12303;111
12304;246
12305;341
12306;392
12307;343
12308;176
12309;-56
12310;-140
12311;-149
12312;-254
12313;-161
12314;-175
12315;-148
12316;-30
12317;153
12318;214
12319;33
12320;-130
12321;-302
12322;-277
12323;-195
12324;-70
12325;95
12326;144
12327;127
12328;146
12329;262
12330;354
12331;371
12332;253
12333;150
12334;54
12335;-80
12336;-340
12337;-397
12338;-235
12339;-97
12340;-88
12341;-67
12342;-247
12343;-459
12344;-317
12345;140
12346;518
12347;589
12348;468
12349;255
12350;-155
12351;-155
12352;111
12353;325
12354;317
12355;148
12356;-64
12357;-170
12358;-296
12359;-648
12360;-558
12361;-262
12362;-74
12363;44
12364;195
12365;287
12366;271
12367;259
12368;211
12369;144
12370;-61
12371;-266
12372;-181
12373;7
12374;77
12375;191
12376;178
12377;78
12378;46
12379;-84
12380;-208
12381;-235
12382;-144
12383;-83
12384;-43
12385;-101
12386;-61
12387;-14
12388;1
12389;91
12390;176
12391;148
12392;128
12393;133
12394;62
12395;-69
12396;-225
12397;-209
12398;-174
12399;-113
12400;5
12401;170
12402;262
12403;287
12404;215
12405;138
12406;102
12407;-1
12408;-104
12409;-146
12410;-148
12411;-135
12412;-78
12413;-44
12414;-22
12415;-119
12416;-44
12417;84
12418;175
12419;162
12420;88
12421;-5
12422;-44
12423;-54
12424;-64
12425;-72
12426;-87
12427;-76
12428;-71
12429;-63
12430;-80
12431;-93
12432;-52
12433;-107
12434;-251
12435;-251
12436;-194
12437;-44
12438;64
12439;65
12440;134
12441;142
12442;197
12443;222
12444;278
12445;315
12446;209
12447;43
12448;-111
12449;-197
12450;-182
12451;-116
12452;-25
12453;41
12454;74
12455;78
12456;59
12457;64
12458;78
12459;77
12460;49
12461;43
12462;44
12463;47
12464;31
12465;-18
12466;0
12467;85
12468;134
12469;88
12470;0
12471;-87
12472;-150
12473;-176
12474;-157
12475;-135
12476;-80
12477;-24
12478;14
12479;9
12480;24
12481;45
12482;36
12483;32
12484;19
12485;16
12486;1
12487;-8
12488;-25
12489;-10
12490;1
12491;2
12492;-2
12493;-5
12494;-5
12495;0
12496;0
12497;-7
12498;-15
12499;-10
12500;-4
12501;5
12502;7
12503;14
12504;14
12505;0
12506;2
12507;4
12508;2
12509;-1
12510;-3
12511;-2
12512;0
12513;-6
12514;-15
12515;-15
12516;-5
12517;-6
12518;-14
12519;-10
12520;-6
12521;-1
12522;-4
12523;-3
12524;4
12525;3
12526;0
12527;-2
12528;-1
12529;0
12530;4
12531;4
12532;2
12533;-18
12534;-8
12535;-8
12536;-11
12537;-4
12538;-2
12539;-8
12540;-2
12541;0
12542;-2
12543;0
12544;-4
12545;-1
12546;0
12547;-6
12548;-8
12549;8
12550;3
12551;0
12552;8
12553;-2
12554;0
12555;-5
12556;-2
12557;-10
12558;3
12559;-5
12560;-5
12561;-3
12562;0
12563;-1
12564;0
12565;0
12566;1
12567;-4
12568;-9
12569;1
12570;-4
12571;-3
12572;-2
12573;-5
12574;-6
12575;-9
12576;0
12577;1
12578;-1
12579;-2
12580;-9
12581;-7
12582;-5
12583;-3
12584;-2
12585;-4
12586;-4
12587;-5
12588;-6
12589;-3
12590;1
12591;1
12592;6
12593;3
12594;0
12595;-1
12596;0
12597;0
12598;0
12599;-10
12600;-8
12601;-7
12602;-9
12603;-2
12604;-6
12605;-3
12606;1
12607;-3
12608;-6
12609;-2
12610;-5
12611;-1
12612;-1
12613;-2
12614;1
12615;-2
12616;7
12617;1
12618;-1
12619;0
12620;4
12621;0
12622;-5
12623;-1
12624;-2
12625;-4
12626;-2
12627;-6
12628;-4
12629;-7
12630;-5
12631;-2
12632;-5
12633;0
12634;0
12635;6
12636;-1
12637;-2
12638;1
12639;-1
12640;0
12641;-1
12642;-6
12643;-9
12644;-2
12645;4
12646;-4
12647;-6
12648;-4
12649;-10
12650;-8
12651;-5
12652;-2
12653;5
12654;-3
12655;0
12656;-6
12657;-7
12658;-11
12659;-12
12660;-7
12661;-8
12662;-9
12663;-6
12664;0
12665;-10
12666;-3
12667;-4
12668;-2
12669;-6
12670;-3
12671;-3
12672;-1
12673;-1
12674;-4
12675;-1
12676;-10
12677;-2
12678;-3
12679;-14
12680;-6
12681;-10
12682;-1
12683;3
12684;5
12685;-3
12686;-2
12687;-6
12688;-9
12689;0
12690;-8
12691;0
12692;-2
12693;-4
12694;0
12695;-2
12696;-5
12697;-3
12698;-2
12699;0
12700;-4
12701;-3
12702;-2
12703;-2
12704;0
12705;-5
12706;-2
12707;-1
12708;0
12709;2
12710;1
12711;2
12712;5
12713;-1
12714;0
12715;0
12716;0
12717;-1
12718;4
12719;3
12720;4
12721;6
12722;0
12723;4
12724;5
12725;7
12726;7
12727;0
12728;3
12729;0
12730;1
12731;1
12732;-2
12733;0
12734;0
12735;2
12736;4
12737;2
12738;-1
12739;-5
12740;0
12741;4
12742;2
12743;-3
12744;0
12745;-10
12746;-6
12747;-1
12748;1
12749;-3
12750;-4
12751;0
12752;-7
12753;-3
12754;-1
12755;1
12756;1
12757;4
12758;11
12759;6
12760;10
12761;2
12762;2
12763;0
12764;0
12765;2
12766;2
12767;3
12768;7
12769;-1
12770;-8
12771;0
12772;0
12773;-3
12774;-5
12775;-6
12776;-5
12777;-7
12778;-3
12779;4
12780;1
12781;7
12782;1
12783;-2
12784;1
12785;-1
12786;2
12787;4
12788;2
12789;1
12790;-3
12791;-7
12792;7
12793;0
12794;0
12795;6
12796;4
12797;13
12798;10
12799;4
12800;6
12801;-2
12802;-7
12803;-4
12804;-7
12805;-1
12806;-1
12807;-2
12808;-6
12809;0
12810;-2
12811;7
12812;-1
12813;1
12814;-4
12815;1
12816;0
12817;-1
12818;1
12819;7
12820;0
12821;-4
12822;-3
12823;0
12824;3
12825;1
12826;-2
12827;10
12828;10
12829;6
12830;7
12831;0
12832;0
12833;-6
12834;7
12835;4
12836;1
12837;0
12838;2
12839;-3
12840;2
12841;0
12842;0
12843;3
12844;-4
12845;1
12846;1
12847;-6
12848;-3
12849;-5
12850;0
12851;-8
12852;-8
12853;-4
12854;-10
12855;-5
12856;-4
12857;-10
12858;0
12859;6
12860;2
12861;3
12862;0
12863;2
12864;4
12865;2
12866;0
12867;0
12868;1
12869;-2
12870;0
12871;-1
12872;0
12873;-4
12874;-1
12875;-1
12876;0
12877;-4
12878;-3
12879;-3
12880;-2
12881;3
12882;-1
12883;0
12884;2
12885;0
12886;-1
12887;-5
12888;-2
12889;0
12890;-1
12891;0
12892;-3
12893;-1
12894;0
12895;-1
12896;3
12897;-5
12898;-4
12899;-2
12900;-6
12901;-2
12902;-1
12903;-1
12904;2
12905;0
12906;0
12907;2
12908;3
12909;2
12910;0
12911;10
12912;10
12913;10
12914;6
12915;1
12916;-4
12917;-3
12918;0
12919;-1
12920;0
12921;10
12922;10
12923;11
12924;1
12925;-10
12926;-28
12927;-35
12928;-21
12929;-3
12930;-43
12931;-78
12932;-65
12933;-7
12934;61
12935;99
12936;102
12937;97
12938;79
12939;-3
12940;-31
12941;-15
12942;13
12943;8
12944;-48
12945;-134
12946;-37
12947;23
12948;35
12949;1
12950;-21
12951;-11
12952;24
12953;26
12954;14
12955;-23
12956;12
12957;82
12958;78
12959;23
12960;60
12961;128
12962;155
12963;89
12964;-2
12965;-53
12966;-137
12967;-159
12968;-134
12969;-131
12970;-126
12971;-117
12972;-113
12973;-281
12974;-192
12975;28
12976;291
12977;378
12978;336
12979;269
12980;148
12981;-12
12982;-81
12983;-86
12984;-72
12985;-91
12986;-74
12987;-45
12988;-68
12989;-89
12990;-79
12991;-145
12992;-408
12993;-370
12994;-140
12995;-43
12996;170
12997;323
12998;393
12999;398
13000;251
13001;108
13002;-82
13003;-160
13004;-102
13005;-2
13006;83
13007;80
13008;33
13009;52
13010;97
13011;49
13012;-219
13013;-462
13014;-376
13015;-107
13016;142
13017;251
13018;288
13019;287
13020;237
13021;156
13022;-12
13023;-154
13024;-235
13025;-146
13026;-47
13027;9
13028;42
13029;32
13030;56
13031;65
13032;-68
13033;-15
13034;120
13035;87
13036;-45
13037;-79
13038;-177
13039;-130
13040;-50
13041;-79
13042;-277
13043;-288
13044;-348
13045;-197
13046;-12
13047;-30
13048;0
13049;143
13050;291
13051;397
13052;379
13053;320
13054;304
13055;343
13056;360
13057;302
13058;92
13059;-54
13060;-40
13061;-69
13062;-115
13063;-271
13064;-249
13065;-156
13066;-50
13067;18
13068;25
13069;10
13070;-27
13071;-116
13072;-162
13073;-275
13074;-254
13075;-51
13076;186
13077;262
13078;215
13079;140
13080;52
13081;-31
13082;-53
13083;-60
13084;-133
13085;-185
13086;-208
13087;-140
13088;-59
13089;-28
13090;62
13091;118
13092;158
13093;144
13094;55
13095;27
13096;19
13097;-26
13098;-50
13099;-20
13100;-17
13101;-92
13102;-117
13103;-162
13104;-134
13105;-40
13106;31
13107;63
13108;-1
13109;53
13110;141
13111;152
13112;124
13113;90
13114;101
13115;2
13116;-103
13117;-189
13118;-162
13119;-74
13120;-76
13121;-22
13122;64
13123;105
13124;116
13125;110
13126;68
13127;50
13128;44
13129;-73
13130;-134
13131;-150
13132;-128
13133;-44
13134;77
13135;164
13136;178
13137;166
13138;142
13139;89
13140;66
13141;37
13142;9
13143;-7
13144;-11
13145;-20
13146;-28
13147;-69
13148;-93
13149;-61
13150;-31
13151;1
13152;14
13153;32
13154;30
13155;17
13156;0
13157;-1
13158;-20
13159;-21
13160;-31
13161;-48
13162;-52
13163;-29
13164;-13
13165;-11
13166;-8
13167;-9
13168;-8
13169;0
13170;0
13171;7
13172;0
13173;0
13174;-5
13175;0
13176;-2
13177;-4
13178;-2
13179;0
13180;5
13181;0
13182;-2
13183;-7
13184;0
13185;3
13186;-1
13187;0
13188;-4
13189;-8
13190;-5
13191;-5
13192;-1
13193;0
13194;0
13195;-9
13196;-9
13197;-6
13198;-1
13199;0
13200;1
13201;-10
13202;-4
13203;-5
13204;-5
13205;-4
13206;-6
13207;-5
13208;-9
13209;-6
13210;-7
13211;-1
13212;-7
13213;-7
13214;-2
13215;-3
13216;-1
13217;-11
13218;-11
13219;-10
13220;-3
13221;-4
13222;-4
13223;-4
13224;-5
13225;-6
13226;-2
13227;3
13228;0
13229;2
13230;0
13231;-5
13232;-1
13233;-4
13234;-12
13235;-1
13236;0
13237;0
13238;-9
13239;1
13240;3
13241;-3
13242;0
13243;-5
13244;-5
13245;1
13246;-4
13247;-11
13248;-6
13249;0
13250;2
13251;-4
13252;-7
13253;1
13254;3
13255;-6
13256;-1
13257;0
13258;4
13259;0
13260;-8
13261;-7
13262;-1
13263;1
13264;0
13265;-1
13266;-7
13267;0
13268;0
13269;-4
13270;0
13271;-4
13272;-6
13273;-4
13274;2
13275;3
13276;5
13277;5
13278;3
13279;1
13280;-1
13281;0
13282;0
13283;-1
13284;0
13285;4
13286;6
13287;4
13288;0
13289;0
13290;3
13291;0
13292;0
13293;6
13294;-3
13295;-6
13296;-4
13297;-3
13298;-6
13299;-3
13300;-11
13301;1
13302;-6
13303;-7
13304;-6
13305;-2
13306;-6
13307;0
13308;-6
13309;-2
13310;-2
13311;0
13312;-4
13313;-1
13314;-1
13315;-5
13316;-1
13317;-3
13318;-5
13319;-3
13320;-1
13321;-2
13322;0
13323;-3
13324;-9
13325;-9
13326;-4
13327;-8
13328;-2
13329;-6
13330;-8
13331;-9
13332;-1
13333;-7
13334;-6
13335;-3
13336;-11
13337;-5
13338;-5
13339;-10
13340;-4
13341;-3
13342;-4
13343;0
13344;2
13345;-4
13346;-4
13347;-6
13348;-10
13349;-10
13350;-10
13351;-9
13352;-7
13353;-2
13354;-6
13355;-7
13356;-5
13357;-8
13358;-7
13359;-8
13360;-12
13361;-11
13362;-13
13363;-10
13364;-4
13365;0
13366;1
13367;0
13368;0
13369;-2
13370;-2
13371;-1
13372;-3
13373;-9
13374;0
13375;-1
13376;1
13377;1
13378;0
13379;-3
13380;-7
13381;0
13382;-3
13383;2
13384;1
13385;-7
13386;-5
13387;-4
13388;-2
13389;-1
13390;2
13391;1
13392;0
13393;3
13394;-6
13395;0
13396;1
13397;5
13398;0
13399;2
13400;2
13401;6
13402;0
13403;1
13404;-1
13405;0
13406;3
13407;0
13408;-1
13409;-7
13410;-2
13411;0
13412;-3
13413;1
13414;0
13415;1
13416;5
13417;6
13418;4
13419;10
13420;3
13421;1
13422;6
13423;5
13424;0
13425;0
13426;-2
13427;-2
13428;0
13429;-3
13430;0
13431;0
13432;-8
13433;0
13434;-6
13435;-1
13436;4
13437;0
13438;4
13439;4
13440;6
13441;-2
13442;4
13443;2
13444;7
13445;0
13446;6
13447;0
13448;-10
13449;0
13450;0
13451;0
13452;0
13453;-4
13454;0
13455;0
13456;2
13457;2
13458;11
13459;2
13460;7
13461;-1
13462;0
13463;0
13464;0
13465;-1
13466;-2
13467;-5
13468;-6
13469;3
13470;6
13471;1
13472;8
13473;10
13474;2
13475;4
13476;-2
13477;6
13478;2
13479;-7
13480;5
13481;-1
13482;0
13483;-6
13484;-13
13485;-7
13486;0
13487;2
13488;3
13489;2
13490;0
13491;11
13492;6
13493;-1
13494;2
13495;2
13496;0
13497;-6
13498;5
13499;0
13500;1
13501;-2
13502;0
13503;-6
13504;6
13505;12
13506;-4
13507;-2
13508;-4
13509;0
13510;-13
13511;-14
13512;-2
13513;-3
13514;3
13515;9
13516;14
13517;15
13518;13
13519;9
13520;6
13521;7
13522;10
13523;6
13524;5
13525;4
13526;-10
13527;-5
13528;-1
13529;-8
13530;-11
13531;0
13532;1
13533;0
13534;0
13535;2
13536;0
13537;0
13538;-2
13539;0
13540;-4
13541;0
13542;1
13543;4
13544;6
13545;0
13546;6
13547;2
13548;0
13549;-3
13550;0
13551;-4
13552;-1
13553;0
13554;-4
13555;-1
13556;0
13557;11
13558;5
13559;0
13560;1
13561;0
13562;-5
13563;-6
13564;2
13565;0
13566;0
13567;7
13568;1
13569;0
13570;5
13571;1
13572;1
13573;-3
13574;0
13575;-9
13576;0
13577;5
13578;3
13579;0
13580;0
13581;0
13582;2
13583;-1
13584;-1
13585;-3
13586;-9
13587;-3
13588;0
13589;2
13590;-6
13591;6
13592;-1
13593;-10
13594;-3
13595;-5
13596;-8
13597;-7
13598;0
13599;12
13600;17
13601;21
13602;13
13603;21
13604;11
13605;6
13606;8
13607;5
13608;5
13609;2
13610;-3
13611;-49
13612;-55
13613;-28
13614;2
13615;17
13616;4
13617;-33
13618;-4
13619;27
13620;88
13621;39
13622;-29
13623;-48
13624;-39
13625;-1
13626;69
13627;99
13628;38
13629;1
13630;16
13631;54
13632;33
13633;-19
13634;-196
13635;-317
13636;-308
13637;-216
13638;-93
13639;20
13640;152
13641;232
13642;289
13643;336
13644;287
13645;171
13646;160
13647;182
13648;25
13649;-168
13650;-217
13651;-157
13652;-65
13653;-35
13654;-53
13655;-79
13656;-78
13657;-56
13658;-45
13659;-180
13660;-122
13661;124
13662;329
13663;348
13664;175
13665;-61
13666;-188
13667;-214
13668;-329
13669;-539
13670;-552
13671;-168
13672;210
13673;351
13674;325
13675;188
13676;106
13677;26
13678;13
13679;20
13680;58
13681;124
13682;188
13683;148
13684;-126
13685;-288
13686;-159
13687;95
13688;251
13689;286
13690;255
13691;153
13692;32
13693;-131
13694;-268
13695;-278
13696;-226
13697;-159
13698;-53
13699;27
13700;-11
13701;-94
13702;-27
13703;49
13704;33
13705;-11
13706;36
13707;29
13708;6
13709;52
13710;123
13711;162
13712;164
13713;149
13714;30
13715;-135
13716;-103
13717;82
13718;218
13719;101
13720;-275
13721;-480
13722;-514
13723;-325
13724;-112
13725;69
13726;202
13727;331
13728;376
13729;354
13730;306
13731;273
13732;196
13733;76
13734;-73
13735;-112
13736;-149
13737;-229
13738;-172
13739;-28
13740;73
13741;73
13742;-87
13743;-210
13744;-232
13745;-124
13746;12
13747;80
13748;-41
13749;-65
13750;-20
13751;-11
13752;-49
13753;-86
13754;-22
13755;-9
13756;-31
13757;-14
13758;103
13759;171
13760;205
13761;186
13762;121
13763;43
13764;29
13765;91
13766;118
13767;86
13768;56
13769;0
13770;-18
13771;-33
13772;-17
13773;-6
13774;-23
13775;-18
13776;0
13777;16
13778;-1
13779;-26
13780;-70
13781;-76
13782;-124
13783;-145
13784;-128
13785;-80
13786;-29
13787;33
13788;59
13789;-30
13790;-87
13791;-70
13792;-46
13793;-35
13794;-18
13795;-17
13796;13
13797;44
13798;9
13799;22
13800;68
13801;117
13802;126
13803;131
13804;93
13805;44
13806;4
13807;-42
13808;-77
13809;-117
13810;-219
13811;-205
13812;-111
13813;-28
13814;59
13815;128
13816;142
13817;76
13818;-1
13819;-25
13820;-20
13821;1
13822;32
13823;64
13824;66
13825;93
13826;111
13827;90
13828;65
13829;27
13830;7
13831;-13
13832;-31
13833;-43
13834;-47
13835;-45
13836;-40
13837;-39
13838;-37
13839;-22
13840;-14
13841;-13
13842;5
13843;2
13844;6
13845;0
13846;0
13847;0
13848;0
13849;-5
13850;-7
13851;1
13852;5
13853;-2
13854;5
13855;-2
13856;-2
13857;-4
13858;2
13859;2
13860;-2
13861;-1
13862;-5
13863;-2
13864;-4
13865;2
13866;0
13867;-6
13868;-9
13869;-1
13870;-8
13871;-5
13872;-2
13873;1
13874;-3
13875;0
13876;0
13877;0
13878;-9
13879;-5
13880;-3
13881;0
13882;-10
13883;-4
13884;-10
13885;-7
13886;-8
13887;-9
13888;-4
13889;-11
13890;-8
13891;-5
13892;-1
13893;-4
13894;-10
13895;-5
13896;-11
13897;0
13898;-5
13899;-5
13900;-1
13901;-4
13902;-5
13903;0
13904;2
13905;3
13906;-6
13907;-11
13908;-8
13909;-9
13910;-9
13911;-3
13912;2
13913;4
13914;5
13915;-2
13916;-4
13917;-5
13918;-9
13919;-3
13920;-4
13921;-10
13922;-2
13923;-9
13924;-3
13925;-2
13926;-8
13927;-1
13928;3
13929;2
13930;-4
13931;0
13932;-3
13933;0
13934;0
13935;4
13936;-3
13937;1
13938;2
13939;3
13940;5
13941;-3
13942;1
13943;-2
13944;7
13945;4
13946;-3
13947;-3
13948;-8
13949;-12
13950;-4
13951;0
13952;-2
13953;-4
13954;-1
13955;-8
13956;-8
13957;-5
13958;-6
13959;-3
13960;-6
13961;4
13962;1
13963;5
13964;7
13965;6
13966;8
13967;6
13968;7
13969;5
13970;0
13971;-2
13972;-3
13973;-1
13974;-3
13975;-4
13976;0
13977;0
13978;0
13979;0
13980;0
13981;3
13982;-3
13983;2
13984;3
13985;-2
13986;0
13987;-1
13988;-1
13989;-5
13990;-7
13991;-6
13992;-5
13993;0
13994;-1
13995;1
13996;-2
13997;-11
13998;-13
13999;-8
14000;-3
14001;-10
14002;-8
14003;-7
14004;-4
14005;-10
14006;-8
14007;1
14008;0
14009;-3
14010;0
14011;0
14012;-7
14013;-3
14014;5
14015;0
14016;5
14017;-3
14018;-6
14019;-3
14020;-7
14021;-5
14022;-12
14023;-12
14024;-8
14025;-3
14026;-5
14027;-8
14028;-6
14029;-8
14030;-3
14031;-4
14032;-8
14033;0
14034;-10
14035;1
14036;0
14037;0
14038;-9
14039;-9
14040;-15
14041;-11
14042;-11
14043;-8
14044;-1
14045;-3
14046;-6
14047;-11
14048;-3
14049;0
14050;-3
14051;2
14052;2
14053;0
14054;1
14055;3
14056;2
14057;1
14058;-6
14059;-6
14060;-10
14061;-6
14062;-12
14063;-5
14064;-4
14065;-6
14066;-1
14067;0
14068;7
14069;0
14070;3
14071;3
14072;-4
14073;2
14074;0
14075;0
14076;-2
14077;-9
14078;-7
14079;-9
14080;-9
14081;-5
14082;0
14083;7
14084;4
14085;2
14086;6
14087;7
14088;3
14089;3
14090;2
14091;1
14092;1
14093;0
14094;0
14095;2
14096;1
14097;-6
14098;-2
14099;1
14100;2
14101;9
14102;5
14103;9
14104;4
14105;0
14106;0
14107;0
14108;-1
14109;-8
14110;-13
14111;-11
14112;-6
14113;-10
14114;-3
14115;0
14116;-8
14117;-3
14118;-2
14119;-1
14120;-2
14121;-3
14122;4
14123;0
14124;4
14125;5
14126;12
14127;15
14128;6
14129;6
14130;9
14131;5
14132;0
14133;3
14134;0
14135;-2
14136;0
14137;-5
14138;0
14139;5
14140;2
14141;3
14142;0
14143;0
14144;0
14145;9
14146;10
14147;1
14148;7
14149;0
14150;0
14151;-6
14152;-9
14153;-11
14154;-14
14155;-11
14156;0
14157;0
14158;8
14159;2
14160;3
14161;8
14162;14
14163;9
14164;8
14165;11
14166;4
14167;2
14168;0
14169;-7
14170;0
14171;0
14172;0
14173;2
14174;0
14175;3
14176;7
14177;6
14178;11
14179;15
14180;5
14181;4
14182;-4
14183;0
14184;0
14185;0
14186;1
14187;-1
14188;-13
14189;-15
14190;-13
14191;-5
14192;0
14193;2
14194;8
14195;2
14196;8
14197;1
14198;8
14199;1
14200;0
14201;4
14202;2
14203;14
14204;10
14205;6
14206;0
14207;2
14208;1
14209;-2
14210;0
14211;-5
14212;0
14213;-5
14214;1
14215;-1
14216;-6
14217;-2
14218;-3
14219;0
14220;0
14221;3
14222;-1
14223;-1
14224;3
14225;1
14226;1
14227;-3
14228;5
14229;0
14230;1
14231;2
14232;3
14233;0
14234;3
14235;8
14236;6
14237;2
14238;0
14239;-1
14240;0
14241;-3
14242;0
14243;-2
14244;0
14245;-2
14246;0
14247;5
14248;0
14249;3
14250;-1
14251;0
14252;4
14253;-1
14254;0
14255;-1
14256;0
14257;-3
14258;-3
14259;0
14260;4
14261;-1
14262;0
14263;-3
14264;1
14265;4
14266;0
14267;0
14268;0
14269;1
14270;2
14271;7
14272;0
14273;0
14274;5
14275;0
14276;-6
14277;-10
14278;-8
14279;-4
14280;0
14281;0
14282;6
14283;14
14284;15
14285;4
14286;6
14287;15
14288;16
14289;-10
14290;-21
14291;-5
14292;1
14293;30
14294;50
14295;48
14296;22
14297;24
14298;16
14299;-65
14300;-121
14301;-103
14302;-39
14303;20
14304;62
14305;94
14306;99
14307;54
14308;-49
14309;-100
14310;-150
14311;-224
14312;-212
14313;-129
14314;-37
14315;16
14316;124
14317;216
14318;228
14319;162
14320;105
14321;58
14322;33
14323;44
14324;70
14325;72
14326;19
14327;6
14328;5
14329;56
14330;27
14331;-68
14332;-183
14333;-143
14334;-98
14335;-54
14336;-58
14337;-3
14338;51
14339;94
14340;57
14341;-70
14342;-152
14343;-193
14344;-52
14345;84
14346;43
14347;-35
14348;8
14349;58
14350;50
14351;45
14352;68
14353;45
14354;-152
14355;-259
14356;-156
14357;-21
14358;79
14359;121
14360;149
14361;47
14362;-93
14363;-119
14364;-63
14365;-195
14366;-236
14367;-244
14368;-60
14369;193
14370;266
14371;260
14372;254
14373;326
14374;439
14375;438
14376;281
14377;114
14378;9
14379;-49
14380;-97
14381;-186
14382;-278
14383;-341
14384;-261
14385;-328
14386;-307
14387;-153
14388;-34
14389;44
14390;-56
14391;-90
14392;39
14393;196
14394;232
14395;180
14396;-43
14397;-158
14398;-74
14399;150
14400;294
14401;261
14402;132
14403;0
14404;-118
14405;-125
14406;-84
14407;-14
14408;-74
14409;-125
14410;-174
14411;-95
14412;34
14413;126
14414;178
14415;172
14416;79
14417;20
14418;18
14419;-1
14420;-112
14421;-172
14422;-113
14423;7
14424;96
14425;123
14426;93
14427;12
14428;-131
14429;-332
14430;-290
14431;-141
14432;-38
14433;-98
14434;-80
14435;121
14436;349
14437;384
14438;111
14439;-73
14440;-27
14441;48
14442;95
14443;46
14444;-56
14445;-43
14446;-1
14447;-9
14448;52
14449;140
14450;159
14451;136
14452;76
14453;34
14454;-72
14455;-126
14456;-72
14457;7
14458;-18
14459;-95
14460;-88
14461;-64
14462;-46
14463;0
14464;32
14465;35
14466;27
14467;28
